 #              _____________________  _______________________             #
 #              ___  __ \__  __ \_  / / /_  /___  ____/_  ___/             #
 #              __  / / /_  /_/ /  / / /_  __/_  __/  _____ \              #
 #              _  /_/ /_  _, _// /_/ / / /_ _  /___  ____/ /              #
 #              /_____/ /_/ |_| \____/  \__/ /_____/  /____/               #
 #                                                                         #
  
 #        time                      c  [M/L^3]                   concetration [M/L^3]       concentration flux [M.L^{-2}.T^{-1}]   in    x              directions   cumulative flux
 #-----------------------------------------------------------------------------------------------

     0.000000000000E+000     0.000000000000E+000     0.000000000000E+000     0.000000000000E+000     0.000000000000E+000
     0.100000000000E+000     0.846306158581E-007     0.482394510391E-007    -0.245428785988E-009     0.245428785988E-010
     0.206000000000E+000     0.174047674594E-006     0.992071745188E-007    -0.504738256323E-009     0.780451337691E-010
     0.318360000000E+000     0.268503470792E-006     0.153046978351E-006    -0.778660065296E-009     0.165535378706E-009
     0.437461600000E+000     0.368261333970E-006     0.209908960363E-006    -0.106795786851E-008     0.292730869578E-009
     0.563709296000E+000     0.473595822427E-006     0.269949618784E-006    -0.137342788504E-008     0.466122975686E-009
     0.697531853760E+000     0.584792877945E-006     0.333331940429E-006    -0.169589934604E-008     0.693072563877E-009
     0.839383764986E+000     0.702149933984E-006     0.400225462371E-006    -0.203623480855E-008     0.981916363175E-009
     0.989746790885E+000     0.825975969214E-006     0.470806302452E-006    -0.239533031072E-008     0.134208547672E-008
     0.114913159834E+001     0.956591497263E-006     0.545257153440E-006    -0.277411534206E-008     0.178423731637E-008
     0.131807949424E+001     0.109432848267E-005     0.623767235124E-006    -0.317355259976E-008     0.232040235063E-008
     0.149716426389E+001     0.123953017198E-005     0.706532198029E-006    -0.359463749875E-008     0.296414717908E-008
     0.168699411973E+001     0.139255082780E-005     0.793753971845E-006    -0.403839740061E-008     0.373075557544E-008
     0.188821376691E+001     0.155375535265E-005     0.885640551011E-006    -0.450589052269E-008     0.463742927666E-008
     0.210150659292E+001     0.172351878816E-005     0.982405709251E-006    -0.499820448567E-008     0.570351043641E-008
     0.232759698850E+001     0.190222567396E-005     0.108426863416E-005    -0.551645445449E-008     0.695072780620E-008
     0.256725280781E+001     0.209026924958E-005     0.119145347226E-005    -0.606178082379E-008     0.840346885600E-008
     0.282128797628E+001     0.228805048128E-005     0.130418877433E-005    -0.663534639570E-008     0.100890801955E-007
     0.309056525485E+001     0.249597689471E-005     0.142270682998E-005    -0.723833299465E-008     0.120381988057E-007
     0.337599917015E+001     0.271446119320E-005     0.154724288012E-005    -0.787193746027E-008     0.142851167359E-007
     0.367855912035E+001     0.294391964038E-005     0.167803419501E-005    -0.853736695709E-008     0.168681820574E-007
     0.399927266758E+001     0.318477018515E-005     0.181531900553E-005    -0.923583353692E-008     0.198302389925E-007
     0.433922902763E+001     0.343743030626E-005     0.195933527457E-005    -0.996854788817E-008     0.232191102476E-007
     0.469958276929E+001     0.370231455351E-005     0.211031929550E-005    -0.107367122052E-007     0.270881246639E-007
     0.508155773545E+001     0.397983176230E-005     0.226850410451E-005    -0.115415121107E-007     0.314966933617E-007
     0.548645119957E+001     0.427038191912E-005     0.243411769390E-005    -0.123841075654E-007     0.365109375740E-007
     0.591563827155E+001     0.457435265595E-005     0.260738101389E-005    -0.132656227023E-007     0.422043713395E-007
     0.637057656784E+001     0.489211535351E-005     0.278850575150E-005    -0.141871345252E-007     0.486586421497E-007
     0.685281116191E+001     0.522402083534E-005     0.297769187615E-005    -0.151496604225E-007     0.559643324938E-007
     0.736397983162E+001     0.557039463809E-005     0.317512494371E-005    -0.161541444505E-007     0.642218250230E-007
     0.790581862152E+001     0.593153184745E-005     0.338097315305E-005    -0.172014423576E-007     0.735422337345E-007
     0.848016773881E+001     0.630769149458E-005     0.359538415191E-005    -0.182923053343E-007     0.840484031565E-007
     0.908897780314E+001     0.669909051476E-005     0.381848159342E-005    -0.194273624928E-007     0.958759769655E-007
     0.973431647133E+001     0.710589727796E-005     0.405036144844E-005    -0.206071021061E-007     0.109174536794E-006
     0.104183754596E+002     0.752822471110E-005     0.429108808533E-005    -0.218318516622E-007     0.124108811154E-006
     0.111434779872E+002     0.796612304328E-005     0.454069013467E-005    -0.231017568255E-007     0.140859953420E-006
     0.119120866664E+002     0.841957221897E-005     0.479915616482E-005    -0.244167594350E-007     0.159626886640E-006
     0.127268118664E+002     0.888847403933E-005     0.506643020242E-005    -0.257765747141E-007     0.180627711629E-006
     0.135904205784E+002     0.937264410978E-005     0.534240714257E-005    -0.271806679184E-007     0.204101173241E-006
     0.145058458131E+002     0.987180369126E-005     0.562692810402E-005    -0.286282307047E-007     0.230308178053E-006
     0.154761965619E+002     0.103855715739E-004     0.591977579713E-005    -0.301181575644E-007     0.259533354798E-006
     0.165047683556E+002     0.109134561153E-004     0.622066998571E-005    -0.316490227343E-007     0.292086646881E-006
     0.175950544569E+002     0.114548476092E-004     0.652926313724E-005    -0.332190580667E-007     0.328304924190E-006
     0.187507577243E+002     0.120090111768E-004     0.684513637077E-005    -0.348261324127E-007     0.368553599211E-006
     0.199758031878E+002     0.125750803967E-004     0.716779582609E-005    -0.364677331503E-007     0.413228230269E-006
     0.212743513791E+002     0.131520519150E-004     0.749666959154E-005    -0.381409505535E-007     0.462756092624E-006
     0.226508124618E+002     0.137387813002E-004     0.783110534110E-005    -0.398424657705E-007     0.517597696198E-006
     0.241098612095E+002     0.143339804249E-004     0.817036884221E-005    -0.415685432323E-007     0.578248227145E-006
     0.256564528821E+002     0.149362166744E-004     0.851364350441E-005    -0.433150283558E-007     0.645238889297E-006
     0.272958400550E+002     0.155439142866E-004     0.886003114336E-005    -0.450773514311E-007     0.719138121023E-006
     0.290335904583E+002     0.161553581311E-004     0.920855413474E-005    -0.468505385803E-007     0.800552663335E-006
     0.308756058858E+002     0.167687002215E-004     0.955815912624E-005    -0.486292306423E-007     0.890128456406E-006
     0.328281422390E+002     0.173819692321E-004     0.990772246231E-005    -0.504077107732E-007     0.988551344169E-006
     0.348281422390E+002     0.179736992901E-004     0.102450085954E-004    -0.521237279414E-007     0.109279880005E-005
     0.368281422390E+002     0.185310946218E-004     0.105627239344E-004    -0.537401744031E-007     0.120027914886E-005
     0.388281422390E+002     0.190561457601E-004     0.108620030832E-004    -0.552628227042E-007     0.131080479427E-005
     0.408281422390E+002     0.195507280316E-004     0.111439149780E-004    -0.566971112917E-007     0.142419901685E-005
     0.428281422390E+002     0.200166082027E-004     0.114094666756E-004    -0.580481637879E-007     0.154029534443E-005
     0.448281422390E+002     0.204554507442E-004     0.116596069242E-004    -0.593208071582E-007     0.165893695874E-005
     0.468281422390E+002     0.208688237374E-004     0.118952295303E-004    -0.605195888385E-007     0.177997613642E-005
     0.488281422390E+002     0.212582044406E-004     0.121171765312E-004    -0.616487928779E-007     0.190327372218E-005
     0.508281422390E+002     0.216249845362E-004     0.123262411857E-004    -0.627124551551E-007     0.202869863249E-005
     0.528281422390E+002     0.219704750758E-004     0.125231707932E-004    -0.637143777199E-007     0.215612738793E-005
     0.548281422390E+002     0.222959111413E-004     0.127086693505E-004    -0.646581423096E-007     0.228544367254E-005
     0.568281422390E+002     0.226024562373E-004     0.128834000553E-004    -0.655471230881E-007     0.241653791872E-005
     0.588281422390E+002     0.228912064313E-004     0.130479876658E-004    -0.663844986507E-007     0.254930691602E-005
     0.608281422390E+002     0.231631942546E-004     0.132030207251E-004    -0.671732633383E-007     0.268365344270E-005
     0.628281422390E+002     0.234193923787E-004     0.133490536559E-004    -0.679162378983E-007     0.281948591850E-005
     0.648281422390E+002     0.236607170802E-004     0.134866087357E-004    -0.686160795325E-007     0.295671807756E-005
     0.668281422390E+002     0.238880315046E-004     0.136161779576E-004    -0.692752913633E-007     0.309526866029E-005
     0.688281422390E+002     0.241021487432E-004     0.137382247836E-004    -0.698962313554E-007     0.323506112300E-005
     0.708281422390E+002     0.243038347315E-004     0.138531857970E-004    -0.704811207214E-007     0.337602336444E-005
     0.728281422390E+002     0.244938109802E-004     0.139614722587E-004    -0.710320518427E-007     0.351808746813E-005
     0.748281422390E+002     0.246727571489E-004     0.140634715749E-004    -0.715509957317E-007     0.366118945959E-005
     0.768281422390E+002     0.248413134705E-004     0.141595486782E-004    -0.720398090645E-007     0.380526907772E-005
     0.788281422390E+002     0.250000830363E-004     0.142500473307E-004    -0.725002408053E-007     0.395026955933E-005
     0.808281422390E+002     0.251496339479E-004     0.143352913503E-004    -0.729339384489E-007     0.409613743623E-005
     0.828281422390E+002     0.252905013455E-004     0.144155857669E-004    -0.733424539020E-007     0.424282234403E-005
     0.848281422390E+002     0.254231893185E-004     0.144912179115E-004    -0.737272490237E-007     0.439027684208E-005
     0.868281422390E+002     0.255481727056E-004     0.145624584422E-004    -0.740897008462E-007     0.453845624377E-005
     0.888281422390E+002     0.256658987907E-004     0.146295623107E-004    -0.744311064931E-007     0.468731845676E-005
     0.908281422390E+002     0.257767889008E-004     0.146927696735E-004    -0.747526878124E-007     0.483682383238E-005
     0.928281422390E+002     0.258812399111E-004     0.147523067493E-004    -0.750555957421E-007     0.498693502387E-005
     0.948281422390E+002     0.259796256629E-004     0.148083866279E-004    -0.753409144225E-007     0.513761685271E-005
     0.968281422390E+002     0.260722983003E-004     0.148612100312E-004    -0.756096650709E-007     0.528883618285E-005
     0.988281422390E+002     0.261595895278E-004     0.149109660308E-004    -0.758628096305E-007     0.544056180211E-005
     0.100828142239E+003     0.262418117965E-004     0.149578327240E-004    -0.761012542098E-007     0.559276431053E-005
     0.102828142239E+003     0.263192594211E-004     0.150019778700E-004    -0.763258523213E-007     0.574541601518E-005
     0.104828142239E+003     0.263922096319E-004     0.150435594902E-004    -0.765374079326E-007     0.589849083104E-005
     0.106828142239E+003     0.264609235661E-004     0.150827264327E-004    -0.767366783417E-007     0.605196418772E-005
     0.108828142239E+003     0.265256472015E-004     0.151196189049E-004    -0.769243768844E-007     0.620581294149E-005
     0.110828142239E+003     0.265866122364E-004     0.151543689747E-004    -0.771011754855E-007     0.636001529246E-005
     0.112828142239E+003     0.266440369178E-004     0.151871010432E-004    -0.772677070617E-007     0.651455070659E-005
     0.114828142239E+003     0.266981268226E-004     0.152179322889E-004    -0.774245677856E-007     0.666939984216E-005
     0.116828142239E+003     0.267490755923E-004     0.152469730876E-004    -0.775723192177E-007     0.682454448059E-005
     0.118828142239E+003     0.267970656262E-004     0.152743274069E-004    -0.777114903159E-007     0.697996746123E-005
     0.120828142239E+003     0.268422687334E-004     0.153000931780E-004    -0.778425793267E-007     0.713565261988E-005
     0.122828142239E+003     0.268848467479E-004     0.153243626463E-004    -0.779660555689E-007     0.729158473102E-005
     0.124828142239E+003     0.269249521076E-004     0.153472227013E-004    -0.780823611119E-007     0.744774945324E-005
     0.126828142239E+003     0.269627283992E-004     0.153687551875E-004    -0.781919123575E-007     0.760413327796E-005
     0.128828142239E+003     0.269983108725E-004     0.153890371973E-004    -0.782951015303E-007     0.776072348102E-005
     0.130828142239E+003     0.270318269243E-004     0.154081413469E-004    -0.783922980805E-007     0.791750807718E-005
     0.132828142239E+003     0.270633965540E-004     0.154261360358E-004    -0.784838500067E-007     0.807447577719E-005
     0.134828142239E+003     0.270931327933E-004     0.154430856922E-004    -0.785700851005E-007     0.823161594739E-005
     0.136828142239E+003     0.271211421104E-004     0.154590510030E-004    -0.786513121203E-007     0.838891857163E-005
     0.138828142239E+003     0.271475247916E-004     0.154740891312E-004    -0.787278218956E-007     0.854637421542E-005
     0.140828142239E+003     0.271723752995E-004     0.154882539207E-004    -0.787998883685E-007     0.870397399216E-005
     0.142828142239E+003     0.271957826116E-004     0.155015960886E-004    -0.788677695736E-007     0.886170953131E-005
     0.144828142239E+003     0.272178305386E-004     0.155141634070E-004    -0.789317085620E-007     0.901957294843E-005
     0.146828142239E+003     0.272385980246E-004     0.155260008740E-004    -0.789919342712E-007     0.917755681697E-005
     0.148828142239E+003     0.272581594290E-004     0.155371508745E-004    -0.790486623442E-007     0.933565414166E-005
     0.150828142239E+003     0.272765847937E-004     0.155476533324E-004    -0.791020959017E-007     0.949385833347E-005
     0.152828142239E+003     0.272939400928E-004     0.155575458529E-004    -0.791524262692E-007     0.965216318600E-005
     0.154828142239E+003     0.273102874695E-004     0.155668638576E-004    -0.791998336617E-007     0.981056285333E-005
     0.156828142239E+003     0.273256854583E-004     0.155756407112E-004    -0.792444878289E-007     0.996905182899E-005
     0.158828142239E+003     0.273401891942E-004     0.155839078407E-004    -0.792865486631E-007     0.101276249263E-004
     0.160828142239E+003     0.273538506107E-004     0.155916948481E-004    -0.793261667711E-007     0.102862772599E-004
     0.162828142239E+003     0.273667186254E-004     0.155990296165E-004    -0.793634840137E-007     0.104450042279E-004
     0.164828142239E+003     0.273788393151E-004     0.156059384096E-004    -0.793986340137E-007     0.106038014959E-004
     0.166828142239E+003     0.273902560806E-004     0.156124459659E-004    -0.794317426337E-007     0.107626649812E-004
     0.168828142239E+003     0.274010098026E-004     0.156185755875E-004    -0.794629284275E-007     0.109215908380E-004
     0.170828142239E+003     0.274111389875E-004     0.156243492229E-004    -0.794923030637E-007     0.110805754442E-004
     0.172828142239E+003     0.274206799056E-004     0.156297875462E-004    -0.795199717262E-007     0.112396153876E-004
     0.174828142239E+003     0.274296667208E-004     0.156349100309E-004    -0.795460334904E-007     0.113987074546E-004
     0.176828142239E+003     0.274381316131E-004     0.156397350195E-004    -0.795705816780E-007     0.115578486179E-004
     0.178828142239E+003     0.274461048935E-004     0.156442797893E-004    -0.795937041911E-007     0.117170360263E-004
     0.180828142239E+003     0.274536151127E-004     0.156485606143E-004    -0.796154838269E-007     0.118762669940E-004
     0.182828142239E+003     0.274606891636E-004     0.156525928232E-004    -0.796359985743E-007     0.120355389911E-004
     0.184828142239E+003     0.274673523769E-004     0.156563908548E-004    -0.796553218931E-007     0.121948496349E-004
     0.186828142239E+003     0.274736286126E-004     0.156599683092E-004    -0.796735229767E-007     0.123541966809E-004
     0.188828142239E+003     0.274795403449E-004     0.156633379966E-004    -0.796906670002E-007     0.125135780149E-004
     0.190828142239E+003     0.274851087427E-004     0.156665119833E-004    -0.797068153537E-007     0.126729916456E-004
     0.192828142239E+003     0.274903537455E-004     0.156695016350E-004    -0.797220258621E-007     0.128324356973E-004
     0.194828142239E+003     0.274952941351E-004     0.156723176570E-004    -0.797363529919E-007     0.129919084033E-004
     0.196828142239E+003     0.274999476023E-004     0.156749701333E-004    -0.797498480467E-007     0.131514080994E-004
     0.198828142239E+003     0.275043308105E-004     0.156774685620E-004    -0.797625593504E-007     0.133109332181E-004
     0.200828142239E+003     0.275084594554E-004     0.156798218896E-004    -0.797745324206E-007     0.134704822829E-004
     0.202828142239E+003     0.275123483211E-004     0.156820385430E-004    -0.797858101312E-007     0.136300539032E-004
     0.204828142239E+003     0.275160113333E-004     0.156841264600E-004    -0.797964328665E-007     0.137896467689E-004
     0.206828142239E+003     0.275194616087E-004     0.156860931170E-004    -0.798064386652E-007     0.139492596462E-004
     0.208828142239E+003     0.275227115024E-004     0.156879455564E-004    -0.798158633570E-007     0.141088913730E-004
     0.210828142239E+003     0.275257726519E-004     0.156896904116E-004    -0.798247406906E-007     0.142685408543E-004
     0.212828142239E+003     0.275286560189E-004     0.156913339308E-004    -0.798331024548E-007     0.144282070593E-004
     0.214828142239E+003     0.275313719284E-004     0.156928819992E-004    -0.798409785923E-007     0.145878890164E-004
     0.216828142239E+003     0.275339301057E-004     0.156943401603E-004    -0.798483973067E-007     0.147475858111E-004
     0.218828142239E+003     0.275363397116E-004     0.156957136356E-004    -0.798553851636E-007     0.149072965814E-004
     0.220828142239E+003     0.275386093745E-004     0.156970073435E-004    -0.798619671860E-007     0.150670205158E-004
     0.222828142239E+003     0.275407472219E-004     0.156982259165E-004    -0.798681669435E-007     0.152267568496E-004
     0.224828142239E+003     0.275427609093E-004     0.156993737183E-004    -0.798740066369E-007     0.153865048629E-004
     0.226828142239E+003     0.275446576474E-004     0.157004548590E-004    -0.798795071775E-007     0.155462638773E-004
     0.228828142239E+003     0.275464442284E-004     0.157014732102E-004    -0.798846882623E-007     0.157060332538E-004
     0.230828142239E+003     0.275481270498E-004     0.157024324184E-004    -0.798895684445E-007     0.158658123907E-004
     0.232828142239E+003     0.275497121377E-004     0.157033359185E-004    -0.798941651994E-007     0.160256007211E-004
     0.234828142239E+003     0.275512051682E-004     0.157041869459E-004    -0.798984949877E-007     0.161853977111E-004
     0.236828142239E+003     0.275526114876E-004     0.157049885479E-004    -0.799025733141E-007     0.163452028577E-004
     0.238828142239E+003     0.275539361320E-004     0.157057435952E-004    -0.799064147827E-007     0.165050156872E-004
     0.240828142239E+003     0.275551838447E-004     0.157064547915E-004    -0.799100331495E-007     0.166648357535E-004
     0.242828142239E+003     0.275563590937E-004     0.157071246834E-004    -0.799134413717E-007     0.168246626363E-004
     0.244828142239E+003     0.275574660875E-004     0.157077556699E-004    -0.799166516538E-007     0.169844959396E-004
