 #              _____________________  _______________________             #
 #              ___  __ \__  __ \_  / / /_  /___  ____/_  ___/             #
 #              __  / / /_  /_/ /  / / /_  __/_  __/  _____ \              #
 #              _  /_/ /_  _, _// /_/ / / /_ _  /___  ____/ /              #
 #              /_____/ /_/ |_| \____/  \__/ /_____/  /____/               #
 #                                                                         #
  
 #        time                      c  [M/M]                   concetration [M/M]       zero flux   in    x              directions   cumulative flux
 #-----------------------------------------------------------------------------------------------

     0.000000000000E+000     0.642928000000E-003     0.000000000000E+000     0.000000000000E+000     0.000000000000E+000
     0.100000000000E+000     0.642837264987E-003     0.000000000000E+000     0.000000000000E+000     0.000000000000E+000
     0.206000000000E+000     0.642741398286E-003     0.000000000000E+000     0.000000000000E+000     0.000000000000E+000
     0.318360000000E+000     0.642640129404E-003     0.000000000000E+000     0.000000000000E+000     0.000000000000E+000
     0.437461600000E+000     0.642533176017E-003     0.000000000000E+000     0.000000000000E+000     0.000000000000E+000
     0.563709296000E+000     0.642420243763E-003     0.000000000000E+000     0.000000000000E+000     0.000000000000E+000
     0.697531853760E+000     0.642301026076E-003     0.000000000000E+000     0.000000000000E+000     0.000000000000E+000
     0.839383764986E+000     0.642175204069E-003     0.000000000000E+000     0.000000000000E+000     0.000000000000E+000
     0.989746790885E+000     0.642042446475E-003     0.000000000000E+000     0.000000000000E+000     0.000000000000E+000
     0.114913159834E+001     0.641902409664E-003     0.000000000000E+000     0.000000000000E+000     0.000000000000E+000
     0.131807949424E+001     0.641754737725E-003     0.000000000000E+000     0.000000000000E+000     0.000000000000E+000
     0.149716426389E+001     0.641599062654E-003     0.000000000000E+000     0.000000000000E+000     0.000000000000E+000
     0.168699411973E+001     0.641435004635E-003     0.000000000000E+000     0.000000000000E+000     0.000000000000E+000
     0.188821376691E+001     0.641262172445E-003     0.000000000000E+000     0.000000000000E+000     0.000000000000E+000
     0.210150659292E+001     0.641080163992E-003     0.000000000000E+000     0.000000000000E+000     0.000000000000E+000
     0.232759698850E+001     0.640888566998E-003     0.000000000000E+000     0.000000000000E+000     0.000000000000E+000
     0.256725280781E+001     0.640686959860E-003     0.000000000000E+000     0.000000000000E+000     0.000000000000E+000
     0.282128797628E+001     0.640474912690E-003     0.000000000000E+000     0.000000000000E+000     0.000000000000E+000
     0.309056525485E+001     0.640251988568E-003     0.000000000000E+000     0.000000000000E+000     0.000000000000E+000
     0.337599917015E+001     0.640017745021E-003     0.000000000000E+000     0.000000000000E+000     0.000000000000E+000
     0.367855912035E+001     0.639771735761E-003     0.000000000000E+000     0.000000000000E+000     0.000000000000E+000
     0.399927266758E+001     0.639513512693E-003     0.000000000000E+000     0.000000000000E+000     0.000000000000E+000
     0.433922902763E+001     0.639242628226E-003     0.000000000000E+000     0.000000000000E+000     0.000000000000E+000
     0.469958276929E+001     0.638958637907E-003     0.000000000000E+000     0.000000000000E+000     0.000000000000E+000
     0.508155773545E+001     0.638661103413E-003     0.000000000000E+000     0.000000000000E+000     0.000000000000E+000
     0.548645119957E+001     0.638349595905E-003     0.000000000000E+000     0.000000000000E+000     0.000000000000E+000
     0.591563827155E+001     0.638023699793E-003     0.000000000000E+000     0.000000000000E+000     0.000000000000E+000
     0.637057656784E+001     0.637683016907E-003     0.000000000000E+000     0.000000000000E+000     0.000000000000E+000
     0.685281116191E+001     0.637327171119E-003     0.000000000000E+000     0.000000000000E+000     0.000000000000E+000
     0.736397983162E+001     0.636955813412E-003     0.000000000000E+000     0.000000000000E+000     0.000000000000E+000
     0.790581862152E+001     0.636568627416E-003     0.000000000000E+000     0.000000000000E+000     0.000000000000E+000
     0.848016773881E+001     0.636165335415E-003     0.000000000000E+000     0.000000000000E+000     0.000000000000E+000
     0.908897780314E+001     0.635745704827E-003     0.000000000000E+000     0.000000000000E+000     0.000000000000E+000
     0.973431647133E+001     0.635309555137E-003     0.000000000000E+000     0.000000000000E+000     0.000000000000E+000
     0.104183754596E+002     0.634856765273E-003     0.000000000000E+000     0.000000000000E+000     0.000000000000E+000
     0.111434779872E+002     0.634387281382E-003     0.000000000000E+000     0.000000000000E+000     0.000000000000E+000
     0.119120866664E+002     0.633901124967E-003     0.000000000000E+000     0.000000000000E+000     0.000000000000E+000
     0.127268118664E+002     0.633398401311E-003     0.000000000000E+000     0.000000000000E+000     0.000000000000E+000
     0.135904205784E+002     0.632879308106E-003     0.000000000000E+000     0.000000000000E+000     0.000000000000E+000
     0.145058458131E+002     0.632344144200E-003     0.000000000000E+000     0.000000000000E+000     0.000000000000E+000
     0.154761965619E+002     0.631793318296E-003     0.000000000000E+000     0.000000000000E+000     0.000000000000E+000
     0.165047683556E+002     0.631227357501E-003     0.000000000000E+000     0.000000000000E+000     0.000000000000E+000
     0.175950544569E+002     0.630646915499E-003     0.000000000000E+000     0.000000000000E+000     0.000000000000E+000
     0.187507577243E+002     0.630052780174E-003     0.000000000000E+000     0.000000000000E+000     0.000000000000E+000
     0.199758031878E+002     0.629445880444E-003     0.000000000000E+000     0.000000000000E+000     0.000000000000E+000
     0.212743513791E+002     0.628827292034E-003     0.000000000000E+000     0.000000000000E+000     0.000000000000E+000
     0.226508124618E+002     0.628198241923E-003     0.000000000000E+000     0.000000000000E+000     0.000000000000E+000
     0.241098612095E+002     0.627560111151E-003     0.000000000000E+000     0.000000000000E+000     0.000000000000E+000
     0.256564528821E+002     0.626914435668E-003     0.000000000000E+000     0.000000000000E+000     0.000000000000E+000
     0.272958400550E+002     0.626262904894E-003     0.000000000000E+000     0.000000000000E+000     0.000000000000E+000
     0.290335904583E+002     0.625607357672E-003     0.000000000000E+000     0.000000000000E+000     0.000000000000E+000
     0.308756058858E+002     0.624949775285E-003     0.000000000000E+000     0.000000000000E+000     0.000000000000E+000
     0.328281422390E+002     0.624292271248E-003     0.000000000000E+000     0.000000000000E+000     0.000000000000E+000
     0.348281422390E+002     0.623657859767E-003     0.000000000000E+000     0.000000000000E+000     0.000000000000E+000
     0.368281422390E+002     0.623060259571E-003     0.000000000000E+000     0.000000000000E+000     0.000000000000E+000
     0.388281422390E+002     0.622497336552E-003     0.000000000000E+000     0.000000000000E+000     0.000000000000E+000
     0.408281422390E+002     0.621967080116E-003     0.000000000000E+000     0.000000000000E+000     0.000000000000E+000
     0.428281422390E+002     0.621467596060E-003     0.000000000000E+000     0.000000000000E+000     0.000000000000E+000
     0.448281422390E+002     0.620997099854E-003     0.000000000000E+000     0.000000000000E+000     0.000000000000E+000
     0.468281422390E+002     0.620553910313E-003     0.000000000000E+000     0.000000000000E+000     0.000000000000E+000
     0.488281422390E+002     0.620136443623E-003     0.000000000000E+000     0.000000000000E+000     0.000000000000E+000
     0.508281422390E+002     0.619743207719E-003     0.000000000000E+000     0.000000000000E+000     0.000000000000E+000
     0.528281422390E+002     0.619372796985E-003     0.000000000000E+000     0.000000000000E+000     0.000000000000E+000
     0.548281422390E+002     0.619023887252E-003     0.000000000000E+000     0.000000000000E+000     0.000000000000E+000
     0.568281422390E+002     0.618695231092E-003     0.000000000000E+000     0.000000000000E+000     0.000000000000E+000
     0.588281422390E+002     0.618385653379E-003     0.000000000000E+000     0.000000000000E+000     0.000000000000E+000
     0.608281422390E+002     0.618094047104E-003     0.000000000000E+000     0.000000000000E+000     0.000000000000E+000
     0.628281422390E+002     0.617819369437E-003     0.000000000000E+000     0.000000000000E+000     0.000000000000E+000
     0.648281422390E+002     0.617560638012E-003     0.000000000000E+000     0.000000000000E+000     0.000000000000E+000
     0.668281422390E+002     0.617316927423E-003     0.000000000000E+000     0.000000000000E+000     0.000000000000E+000
     0.688281422390E+002     0.617087365932E-003     0.000000000000E+000     0.000000000000E+000     0.000000000000E+000
     0.708281422390E+002     0.616871132355E-003     0.000000000000E+000     0.000000000000E+000     0.000000000000E+000
     0.728281422390E+002     0.616667453141E-003     0.000000000000E+000     0.000000000000E+000     0.000000000000E+000
     0.748281422390E+002     0.616475599605E-003     0.000000000000E+000     0.000000000000E+000     0.000000000000E+000
     0.768281422390E+002     0.616294885334E-003     0.000000000000E+000     0.000000000000E+000     0.000000000000E+000
     0.788281422390E+002     0.616124663737E-003     0.000000000000E+000     0.000000000000E+000     0.000000000000E+000
     0.808281422390E+002     0.615964325735E-003     0.000000000000E+000     0.000000000000E+000     0.000000000000E+000
     0.828281422390E+002     0.615813297588E-003     0.000000000000E+000     0.000000000000E+000     0.000000000000E+000
     0.848281422390E+002     0.615671038846E-003     0.000000000000E+000     0.000000000000E+000     0.000000000000E+000
     0.868281422390E+002     0.615537040421E-003     0.000000000000E+000     0.000000000000E+000     0.000000000000E+000
     0.888281422390E+002     0.615410822766E-003     0.000000000000E+000     0.000000000000E+000     0.000000000000E+000
     0.908281422390E+002     0.615291934165E-003     0.000000000000E+000     0.000000000000E+000     0.000000000000E+000
     0.928281422390E+002     0.615179949115E-003     0.000000000000E+000     0.000000000000E+000     0.000000000000E+000
     0.948281422390E+002     0.615074466809E-003     0.000000000000E+000     0.000000000000E+000     0.000000000000E+000
     0.968281422390E+002     0.614975109705E-003     0.000000000000E+000     0.000000000000E+000     0.000000000000E+000
     0.988281422390E+002     0.614881522171E-003     0.000000000000E+000     0.000000000000E+000     0.000000000000E+000
     0.100828142239E+003     0.614793369219E-003     0.000000000000E+000     0.000000000000E+000     0.000000000000E+000
     0.102828142239E+003     0.614710335306E-003     0.000000000000E+000     0.000000000000E+000     0.000000000000E+000
     0.104828142239E+003     0.614632123204E-003     0.000000000000E+000     0.000000000000E+000     0.000000000000E+000
     0.106828142239E+003     0.614558452942E-003     0.000000000000E+000     0.000000000000E+000     0.000000000000E+000
     0.108828142239E+003     0.614489060798E-003     0.000000000000E+000     0.000000000000E+000     0.000000000000E+000
     0.110828142239E+003     0.614423698361E-003     0.000000000000E+000     0.000000000000E+000     0.000000000000E+000
     0.112828142239E+003     0.614362131644E-003     0.000000000000E+000     0.000000000000E+000     0.000000000000E+000
     0.114828142239E+003     0.614304140240E-003     0.000000000000E+000     0.000000000000E+000     0.000000000000E+000
     0.116828142239E+003     0.614249516542E-003     0.000000000000E+000     0.000000000000E+000     0.000000000000E+000
     0.118828142239E+003     0.614198064992E-003     0.000000000000E+000     0.000000000000E+000     0.000000000000E+000
     0.120828142239E+003     0.614149601390E-003     0.000000000000E+000     0.000000000000E+000     0.000000000000E+000
     0.122828142239E+003     0.614103952228E-003     0.000000000000E+000     0.000000000000E+000     0.000000000000E+000
     0.124828142239E+003     0.614060954073E-003     0.000000000000E+000     0.000000000000E+000     0.000000000000E+000
     0.126828142239E+003     0.614020452981E-003     0.000000000000E+000     0.000000000000E+000     0.000000000000E+000
     0.128828142239E+003     0.613982303948E-003     0.000000000000E+000     0.000000000000E+000     0.000000000000E+000
     0.130828142239E+003     0.613946370387E-003     0.000000000000E+000     0.000000000000E+000     0.000000000000E+000
     0.132828142239E+003     0.613912523644E-003     0.000000000000E+000     0.000000000000E+000     0.000000000000E+000
     0.134828142239E+003     0.613880642533E-003     0.000000000000E+000     0.000000000000E+000     0.000000000000E+000
     0.136828142239E+003     0.613850612907E-003     0.000000000000E+000     0.000000000000E+000     0.000000000000E+000
     0.138828142239E+003     0.613822327246E-003     0.000000000000E+000     0.000000000000E+000     0.000000000000E+000
     0.140828142239E+003     0.613795684273E-003     0.000000000000E+000     0.000000000000E+000     0.000000000000E+000
     0.142828142239E+003     0.613770588594E-003     0.000000000000E+000     0.000000000000E+000     0.000000000000E+000
     0.144828142239E+003     0.613746950353E-003     0.000000000000E+000     0.000000000000E+000     0.000000000000E+000
     0.146828142239E+003     0.613724684910E-003     0.000000000000E+000     0.000000000000E+000     0.000000000000E+000
     0.148828142239E+003     0.613703712544E-003     0.000000000000E+000     0.000000000000E+000     0.000000000000E+000
     0.150828142239E+003     0.613683958160E-003     0.000000000000E+000     0.000000000000E+000     0.000000000000E+000
     0.152828142239E+003     0.613665351025E-003     0.000000000000E+000     0.000000000000E+000     0.000000000000E+000
     0.154828142239E+003     0.613647824514E-003     0.000000000000E+000     0.000000000000E+000     0.000000000000E+000
     0.156828142239E+003     0.613631315870E-003     0.000000000000E+000     0.000000000000E+000     0.000000000000E+000
     0.158828142239E+003     0.613615765981E-003     0.000000000000E+000     0.000000000000E+000     0.000000000000E+000
     0.160828142239E+003     0.613601119168E-003     0.000000000000E+000     0.000000000000E+000     0.000000000000E+000
     0.162828142239E+003     0.613587322985E-003     0.000000000000E+000     0.000000000000E+000     0.000000000000E+000
     0.164828142239E+003     0.613574328031E-003     0.000000000000E+000     0.000000000000E+000     0.000000000000E+000
     0.166828142239E+003     0.613562087776E-003     0.000000000000E+000     0.000000000000E+000     0.000000000000E+000
     0.168828142239E+003     0.613550558389E-003     0.000000000000E+000     0.000000000000E+000     0.000000000000E+000
     0.170828142239E+003     0.613539698587E-003     0.000000000000E+000     0.000000000000E+000     0.000000000000E+000
     0.172828142239E+003     0.613529469483E-003     0.000000000000E+000     0.000000000000E+000     0.000000000000E+000
     0.174828142239E+003     0.613519834450E-003     0.000000000000E+000     0.000000000000E+000     0.000000000000E+000
     0.176828142239E+003     0.613510758986E-003     0.000000000000E+000     0.000000000000E+000     0.000000000000E+000
     0.178828142239E+003     0.613502210594E-003     0.000000000000E+000     0.000000000000E+000     0.000000000000E+000
     0.180828142239E+003     0.613494158663E-003     0.000000000000E+000     0.000000000000E+000     0.000000000000E+000
     0.182828142239E+003     0.613486574362E-003     0.000000000000E+000     0.000000000000E+000     0.000000000000E+000
     0.184828142239E+003     0.613479430532E-003     0.000000000000E+000     0.000000000000E+000     0.000000000000E+000
     0.186828142239E+003     0.613472701592E-003     0.000000000000E+000     0.000000000000E+000     0.000000000000E+000
     0.188828142239E+003     0.613466363447E-003     0.000000000000E+000     0.000000000000E+000     0.000000000000E+000
     0.190828142239E+003     0.613460393401E-003     0.000000000000E+000     0.000000000000E+000     0.000000000000E+000
     0.192828142239E+003     0.613454770077E-003     0.000000000000E+000     0.000000000000E+000     0.000000000000E+000
     0.194828142239E+003     0.613449473338E-003     0.000000000000E+000     0.000000000000E+000     0.000000000000E+000
     0.196828142239E+003     0.613444484217E-003     0.000000000000E+000     0.000000000000E+000     0.000000000000E+000
     0.198828142239E+003     0.613439784848E-003     0.000000000000E+000     0.000000000000E+000     0.000000000000E+000
     0.200828142239E+003     0.613435358404E-003     0.000000000000E+000     0.000000000000E+000     0.000000000000E+000
     0.202828142239E+003     0.613431189035E-003     0.000000000000E+000     0.000000000000E+000     0.000000000000E+000
     0.204828142239E+003     0.613427261810E-003     0.000000000000E+000     0.000000000000E+000     0.000000000000E+000
     0.206828142239E+003     0.613423562667E-003     0.000000000000E+000     0.000000000000E+000     0.000000000000E+000
     0.208828142239E+003     0.613420078359E-003     0.000000000000E+000     0.000000000000E+000     0.000000000000E+000
     0.210828142239E+003     0.613416796409E-003     0.000000000000E+000     0.000000000000E+000     0.000000000000E+000
     0.212828142239E+003     0.613413705065E-003     0.000000000000E+000     0.000000000000E+000     0.000000000000E+000
     0.214828142239E+003     0.613410793257E-003     0.000000000000E+000     0.000000000000E+000     0.000000000000E+000
     0.216828142239E+003     0.613408050559E-003     0.000000000000E+000     0.000000000000E+000     0.000000000000E+000
     0.218828142239E+003     0.613405467148E-003     0.000000000000E+000     0.000000000000E+000     0.000000000000E+000
     0.220828142239E+003     0.613403033775E-003     0.000000000000E+000     0.000000000000E+000     0.000000000000E+000
     0.222828142239E+003     0.613400741725E-003     0.000000000000E+000     0.000000000000E+000     0.000000000000E+000
     0.224828142239E+003     0.613398582790E-003     0.000000000000E+000     0.000000000000E+000     0.000000000000E+000
     0.226828142239E+003     0.613396549241E-003     0.000000000000E+000     0.000000000000E+000     0.000000000000E+000
     0.228828142239E+003     0.613394633794E-003     0.000000000000E+000     0.000000000000E+000     0.000000000000E+000
     0.230828142239E+003     0.613392829591E-003     0.000000000000E+000     0.000000000000E+000     0.000000000000E+000
     0.232828142239E+003     0.613391130171E-003     0.000000000000E+000     0.000000000000E+000     0.000000000000E+000
     0.234828142239E+003     0.613389529448E-003     0.000000000000E+000     0.000000000000E+000     0.000000000000E+000
     0.236828142239E+003     0.613388021691E-003     0.000000000000E+000     0.000000000000E+000     0.000000000000E+000
     0.238828142239E+003     0.613386601500E-003     0.000000000000E+000     0.000000000000E+000     0.000000000000E+000
     0.240828142239E+003     0.613385263790E-003     0.000000000000E+000     0.000000000000E+000     0.000000000000E+000
     0.242828142239E+003     0.613384003771E-003     0.000000000000E+000     0.000000000000E+000     0.000000000000E+000
     0.244828142239E+003     0.613382816929E-003     0.000000000000E+000     0.000000000000E+000     0.000000000000E+000
