 #              _____________________  _______________________             #
 #              ___  __ \__  __ \_  / / /_  /___  ____/_  ___/             #
 #              __  / / /_  /_/ /  / / /_  __/_  __/  _____ \              #
 #              _  /_/ /_  _, _// /_/ / / /_ _  /___  ____/ /              #
 #              /_____/ /_/ |_| \____/  \__/ /_____/  /____/               #
 #                                                                         #
  
 #        time                      c  [M/L^3]                   concetration [M/L^3]       concentration flux [M.L^{-2}.T^{-1}]   in    x              directions   cumulative flux
 #-----------------------------------------------------------------------------------------------

     0.000000000000E+000     0.000000000000E+000     0.000000000000E+000     0.000000000000E+000     0.000000000000E+000
     0.100000000000E+000     0.175419210575E-007     0.335391005467E-008    -0.508715710667E-010     0.508715710667E-011
     0.206000000000E+000     0.361347053261E-007     0.690873885011E-008    -0.104790645446E-009     0.161949655239E-010
     0.318360000000E+000     0.558412005791E-007     0.106765025035E-007    -0.161939481679E-009     0.343904856854E-010
     0.437461600000E+000     0.767280002743E-007     0.146699332844E-007    -0.222511200795E-009     0.608919257180E-010
     0.563709296000E+000     0.988656651857E-007     0.189025219895E-007    -0.286710429038E-009     0.970884568033E-010
     0.697531853760E+000     0.122328957954E-006     0.233885627871E-007    -0.354753978067E-009     0.144562541524E-009
     0.839383764986E+000     0.147197091287E-006     0.281432006715E-007    -0.426871564732E-009     0.205115088829E-009
     0.989746790885E+000     0.173553990547E-006     0.331824816686E-007    -0.503306572586E-009     0.280793788038E-009
     0.114913159834E+001     0.201488571583E-006     0.385234059552E-007    -0.584316857591E-009     0.373925017877E-009
     0.131807949424E+001     0.231095034597E-006     0.441839840447E-007    -0.670175600330E-009     0.487149775436E-009
     0.149716426389E+001     0.262473174974E-006     0.501832962160E-007    -0.761172207425E-009     0.623464124870E-009
     0.168699411973E+001     0.295728711990E-006     0.565415553601E-007    -0.857613264770E-009     0.786264727282E-009
     0.188821376691E+001     0.330973636382E-006     0.632801734344E-007    -0.959823545508E-009     0.979400082468E-009
     0.210150659292E+001     0.368326577804E-006     0.704218317166E-007    -0.106814707563E-008     0.120722819083E-008
     0.232759698850E+001     0.407913193244E-006     0.779905550691E-007    -0.118294826041E-008     0.147468143097E-008
     0.256725280781E+001     0.449866577533E-006     0.860117904248E-007    -0.130461307485E-008     0.178733954630E-008
     0.282128797628E+001     0.494327697107E-006     0.945124897206E-007    -0.143355032161E-008     0.215151174376E-008
     0.309056525485E+001     0.541445848267E-006     0.103521197514E-006    -0.157019295997E-008     0.257432903086E-008
     0.337599917015E+001     0.591379141208E-006     0.113068143524E-006    -0.171499950950E-008     0.306384805558E-008
     0.367855912035E+001     0.644295011156E-006     0.123185340363E-006    -0.186845553235E-008     0.362916786842E-008
     0.399927266758E+001     0.700370758001E-006     0.133906686705E-006    -0.203107519820E-008     0.428056119991E-008
     0.433922902763E+001     0.759794115875E-006     0.145268076191E-006    -0.220340293604E-008     0.502962204178E-008
     0.469958276929E+001     0.822763854171E-006     0.157307512334E-006    -0.238601517710E-008     0.588943153850E-008
     0.508155773545E+001     0.889490411555E-006     0.170065229747E-006    -0.257952219351E-008     0.687474444107E-008
     0.548645119957E+001     0.960196564574E-006     0.183583821967E-006    -0.278457003727E-008     0.800219864956E-008
     0.591563827155E+001     0.103511813254E-005     0.197908376232E-006    -0.300184258435E-008     0.929055067886E-008
     0.637057656784E+001     0.111450472034E-005     0.213086615500E-006    -0.323206368898E-008     0.107609402270E-007
     0.685281116191E+001     0.119862050102E-005     0.229169048071E-006    -0.347599945295E-008     0.124371874122E-007
     0.736397983162E+001     0.128774503982E-005     0.246209125143E-006    -0.373446061547E-008     0.143461266771E-007
     0.790581862152E+001     0.138217416158E-005     0.264263406648E-006    -0.400830506857E-008     0.165179818450E-007
     0.848016773881E+001     0.148222086334E-005     0.283391735745E-006    -0.429844050368E-008     0.189867873540E-007
     0.908897780314E+001     0.158821627403E-005     0.303657422297E-006    -0.460582719469E-008     0.217908613047E-007
     0.973431647133E+001     0.170051066313E-005     0.325127435727E-006    -0.493148092309E-008     0.249733366358E-007
     0.104183754596E+002     0.181947450023E-005     0.347872607597E-006    -0.527647605066E-008     0.285827575047E-007
     0.111434779872E+002     0.194549956734E-005     0.371967844278E-006    -0.564194874529E-008     0.326737488004E-007
     0.119120866664E+002     0.207900012590E-005     0.397492350071E-006    -0.602910036511E-008     0.373077676690E-007
     0.127268118664E+002     0.222041414019E-005     0.424529861120E-006    -0.643920100656E-008     0.425539469968E-007
     0.135904205784E+002     0.237020455905E-005     0.453168890462E-006    -0.687359322124E-008     0.484900419853E-007
     0.145058458131E+002     0.252886065743E-005     0.483502984537E-006    -0.733369590656E-008     0.552034922818E-007
     0.154761965619E+002     0.269689943954E-005     0.515630991444E-006    -0.782100837468E-008     0.627926136144E-007
     0.165047683556E+002     0.287486710478E-005     0.549657341232E-006    -0.833711460387E-008     0.713679345369E-007
     0.175950544569E+002     0.306334057790E-005     0.585692338451E-006    -0.888368767592E-008     0.810536957386E-007
     0.187507577243E+002     0.326292910435E-005     0.623852467177E-006    -0.946249440261E-008     0.919895314375E-007
     0.199758031878E+002     0.347427591149E-005     0.664260708622E-006    -0.100754001433E-007     0.104332354676E-006
     0.212743513791E+002     0.369805993631E-005     0.707046871462E-006    -0.107243738153E-007     0.118258470896E-006
     0.226508124618E+002     0.393499761947E-005     0.752347934857E-006    -0.114114930965E-007     0.133965947039E-006
     0.241098612095E+002     0.418584476554E-005     0.800308404103E-006    -0.121389498201E-007     0.151677266573E-006
     0.256564528821E+002     0.445139846838E-005     0.851080678764E-006    -0.129090555583E-007     0.171642304400E-006
     0.272958400550E+002     0.473249910022E-005     0.904825432967E-006    -0.137242473906E-007     0.194141659530E-006
     0.290335904583E+002     0.503003236228E-005     0.961712007474E-006    -0.145870938506E-007     0.219490387752E-006
     0.308756058858E+002     0.534493139395E-005     0.102191881293E-005    -0.155003010424E-007     0.248042181403E-006
     0.328281422390E+002     0.567817893655E-005     0.108563374359E-005    -0.164667189160E-007     0.280194048704E-006
     0.348281422390E+002     0.601895598527E-005     0.115078827065E-005    -0.174549723573E-007     0.315103993418E-006
     0.368281422390E+002     0.635916267726E-005     0.121583374892E-005    -0.184415717640E-007     0.351987136946E-006
     0.388281422390E+002     0.669879996710E-005     0.128077036091E-005    -0.194265199046E-007     0.390840176756E-006
     0.408281422390E+002     0.703786880779E-005     0.134559828884E-005    -0.204098195426E-007     0.431659815841E-006
     0.428281422390E+002     0.737637015072E-005     0.141031771460E-005    -0.213914734371E-007     0.474442762715E-006
     0.448281422390E+002     0.771430494570E-005     0.147492881979E-005    -0.223714843425E-007     0.519185731400E-006
     0.468281422390E+002     0.805167414095E-005     0.153943178571E-005    -0.233498550088E-007     0.565885441418E-006
     0.488281422390E+002     0.838847868310E-005     0.160382679334E-005    -0.243265881810E-007     0.614538617780E-006
     0.508281422390E+002     0.872471951718E-005     0.166811402337E-005    -0.253016865998E-007     0.665141990979E-006
     0.528281422390E+002     0.906039758667E-005     0.173229365619E-005    -0.262751530013E-007     0.717692296982E-006
     0.548281422390E+002     0.939551383345E-005     0.179636587187E-005    -0.272469901170E-007     0.772186277216E-006
     0.568281422390E+002     0.973006919782E-005     0.186033085021E-005    -0.282172006737E-007     0.828620678563E-006
     0.588281422390E+002     0.100640646185E-004     0.192418877067E-005    -0.291857873937E-007     0.886992253351E-006
     0.608281422390E+002     0.103975010327E-004     0.198793981245E-005    -0.301527529948E-007     0.947297759340E-006
     0.628281422390E+002     0.107303793760E-004     0.205158415441E-005    -0.311181001904E-007     0.100953395972E-005
     0.648281422390E+002     0.110627005824E-004     0.211512197515E-005    -0.320818316889E-007     0.107369762310E-005
     0.668281422390E+002     0.113944655843E-004     0.217855345293E-005    -0.330439501946E-007     0.113978552349E-005
     0.688281422390E+002     0.117256753128E-004     0.224187876576E-005    -0.340044584071E-007     0.120779444030E-005
     0.708281422390E+002     0.120563306971E-004     0.230509809130E-005    -0.349633590216E-007     0.127772115835E-005
     0.728281422390E+002     0.123864326650E-004     0.236821160695E-005    -0.359206547285E-007     0.134956246780E-005
     0.748281422390E+002     0.127159821428E-004     0.243121948980E-005    -0.368763482140E-007     0.142331516423E-005
     0.768281422390E+002     0.130449800551E-004     0.249412191665E-005    -0.378304421597E-007     0.149897604855E-005
     0.788281422390E+002     0.133734273251E-004     0.255691906399E-005    -0.387829392428E-007     0.157654192704E-005
     0.808281422390E+002     0.137013248744E-004     0.261961110803E-005    -0.397338421357E-007     0.165600961131E-005
     0.828281422390E+002     0.140286736230E-004     0.268219822468E-005    -0.406831535068E-007     0.173737591832E-005
     0.848281422390E+002     0.143554744895E-004     0.274468058955E-005    -0.416308760196E-007     0.182063767036E-005
     0.868281422390E+002     0.146817283908E-004     0.280705837796E-005    -0.425770123334E-007     0.190579169503E-005
     0.888281422390E+002     0.150074362424E-004     0.286933176493E-005    -0.435215651030E-007     0.199283482523E-005
     0.908281422390E+002     0.153325989582E-004     0.293150092521E-005    -0.444645369788E-007     0.208176389919E-005
     0.928281422390E+002     0.156572174505E-004     0.299356603324E-005    -0.454059306065E-007     0.217257576040E-005
     0.948281422390E+002     0.159812926303E-004     0.305552726315E-005    -0.463457486278E-007     0.226526725766E-005
     0.968281422390E+002     0.163048254068E-004     0.311738478882E-005    -0.472839936796E-007     0.235983524502E-005
     0.988281422390E+002     0.166278166878E-004     0.317913878380E-005    -0.482206683946E-007     0.245627658181E-005
     0.100828142239E+003     0.169502673797E-004     0.324078942139E-005    -0.491557754010E-007     0.255458813261E-005
     0.102828142239E+003     0.172721783871E-004     0.330233687455E-005    -0.500893173227E-007     0.265476676725E-005
     0.104828142239E+003     0.175935506135E-004     0.336378131599E-005    -0.510212967791E-007     0.275680936081E-005
     0.106828142239E+003     0.179143849604E-004     0.342512291812E-005    -0.519517163852E-007     0.286071279358E-005
     0.108828142239E+003     0.182346823282E-004     0.348636185306E-005    -0.528805787518E-007     0.296647395109E-005
     0.110828142239E+003     0.185544436156E-004     0.354749829263E-005    -0.538078864851E-007     0.307408972406E-005
     0.112828142239E+003     0.188736697197E-004     0.360853240839E-005    -0.547336421872E-007     0.318355700843E-005
     0.114828142239E+003     0.191923615364E-004     0.366946437159E-005    -0.556578484555E-007     0.329487270534E-005
     0.116828142239E+003     0.195105199598E-004     0.373029435320E-005    -0.565805078834E-007     0.340803372111E-005
     0.118828142239E+003     0.198281458827E-004     0.379102252390E-005    -0.575016230598E-007     0.352303696723E-005
     0.120828142239E+003     0.201452401963E-004     0.385164905409E-005    -0.584211965692E-007     0.363987936037E-005
     0.122828142239E+003     0.204618037903E-004     0.391217411389E-005    -0.593392309919E-007     0.375855782235E-005
     0.124828142239E+003     0.207778375530E-004     0.397259787312E-005    -0.602557289038E-007     0.387906928016E-005
     0.126828142239E+003     0.210933423712E-004     0.403292050132E-005    -0.611706928766E-007     0.400141066591E-005
     0.128828142239E+003     0.214083191302E-004     0.409314216777E-005    -0.620841254775E-007     0.412557891687E-005
     0.130828142239E+003     0.217227687136E-004     0.415326304143E-005    -0.629960292696E-007     0.425157097541E-005
     0.132828142239E+003     0.220366920040E-004     0.421328329101E-005    -0.639064068115E-007     0.437938378903E-005
     0.134828142239E+003     0.223500898820E-004     0.427320308490E-005    -0.648152606579E-007     0.450901431034E-005
     0.136828142239E+003     0.226629632271E-004     0.433302259125E-005    -0.657225933587E-007     0.464045949706E-005
     0.138828142239E+003     0.229753129172E-004     0.439274197789E-005    -0.666284074600E-007     0.477371631198E-005
     0.140828142239E+003     0.232871398287E-004     0.445236141241E-005    -0.675327055033E-007     0.490878172299E-005
     0.142828142239E+003     0.235984448366E-004     0.451188106208E-005    -0.684354900260E-007     0.504565270304E-005
     0.144828142239E+003     0.239092288143E-004     0.457130109391E-005    -0.693367635614E-007     0.518432623016E-005
     0.146828142239E+003     0.242194926338E-004     0.463062167464E-005    -0.702365286382E-007     0.532479928744E-005
     0.148828142239E+003     0.245292371659E-004     0.468984297070E-005    -0.711347877811E-007     0.546706886300E-005
     0.150828142239E+003     0.248384632795E-004     0.474896514826E-005    -0.720315435107E-007     0.561113195002E-005
     0.152828142239E+003     0.251471718424E-004     0.480798837323E-005    -0.729267983430E-007     0.575698554671E-005
     0.154828142239E+003     0.254553637207E-004     0.486691281121E-005    -0.738205547901E-007     0.590462665629E-005
     0.156828142239E+003     0.257630397792E-004     0.492573862754E-005    -0.747128153598E-007     0.605405228701E-005
     0.158828142239E+003     0.260702008812E-004     0.498446598728E-005    -0.756035825556E-007     0.620525945212E-005
     0.160828142239E+003     0.263768478885E-004     0.504309505520E-005    -0.764928588770E-007     0.635824516987E-005
     0.162828142239E+003     0.266829816617E-004     0.510162599583E-005    -0.773806468191E-007     0.651300646351E-005
     0.164828142239E+003     0.269886030596E-004     0.516005897337E-005    -0.782669488731E-007     0.666954036126E-005
     0.166828142239E+003     0.272937129398E-004     0.521839415180E-005    -0.791517675256E-007     0.682784389631E-005
     0.168828142239E+003     0.275983121583E-004     0.527663169479E-005    -0.800351052595E-007     0.698791410683E-005
     0.170828142239E+003     0.279024015699E-004     0.533477176575E-005    -0.809169645532E-007     0.714974803594E-005
     0.172828142239E+003     0.282059820277E-004     0.539281452780E-005    -0.817973478809E-007     0.731334273170E-005
     0.174828142239E+003     0.285090543835E-004     0.545076014381E-005    -0.826762577131E-007     0.747869524712E-005
     0.176828142239E+003     0.288116194878E-004     0.550860877635E-005    -0.835536965155E-007     0.764580264015E-005
     0.178828142239E+003     0.291136781893E-004     0.556636058773E-005    -0.844296667502E-007     0.781466197365E-005
     0.180828142239E+003     0.294152313357E-004     0.562401574000E-005    -0.853041708749E-007     0.798527031540E-005
     0.182828142239E+003     0.297162797729E-004     0.568157439490E-005    -0.861772113431E-007     0.815762473809E-005
     0.184828142239E+003     0.300168243456E-004     0.573903671393E-005    -0.870487906043E-007     0.833172231930E-005
     0.186828142239E+003     0.303168658970E-004     0.579640285831E-005    -0.879189111037E-007     0.850756014151E-005
     0.188828142239E+003     0.306164052689E-004     0.585367298898E-005    -0.887875752827E-007     0.868513529207E-005
     0.190828142239E+003     0.309154433016E-004     0.591084726661E-005    -0.896547855781E-007     0.886444486323E-005
     0.192828142239E+003     0.312139808341E-004     0.596792585159E-005    -0.905205444228E-007     0.904548595207E-005
     0.194828142239E+003     0.315120187038E-004     0.602490890405E-005    -0.913848542457E-007     0.922825566056E-005
     0.196828142239E+003     0.318095577468E-004     0.608179658383E-005    -0.922477174712E-007     0.941275109551E-005
     0.198828142239E+003     0.321065987977E-004     0.613858905052E-005    -0.931091365198E-007     0.959896936855E-005
     0.200828142239E+003     0.324031426897E-004     0.619528646341E-005    -0.939691138078E-007     0.978690759616E-005
     0.202828142239E+003     0.326991902545E-004     0.625188898152E-005    -0.948276517473E-007     0.997656289966E-005
     0.204828142239E+003     0.329947423225E-004     0.630839676362E-005    -0.956847527462E-007     0.101679324051E-004
     0.206828142239E+003     0.332897997226E-004     0.636480996816E-005    -0.965404192082E-007     0.103610132436E-004
     0.208828142239E+003     0.335843632821E-004     0.642112875335E-005    -0.973946535329E-007     0.105558025506E-004
     0.210828142239E+003     0.338784338269E-004     0.647735327711E-005    -0.982474581155E-007     0.107522974669E-004
     0.212828142239E+003     0.341720121817E-004     0.653348369706E-005    -0.990988353471E-007     0.109504951376E-004
     0.214828142239E+003     0.344650991693E-004     0.658952017057E-005    -0.999487876146E-007     0.111503927128E-004
     0.216828142239E+003     0.347576956113E-004     0.664546285471E-005    -0.100797317300E-006     0.113519873474E-004
     0.218828142239E+003     0.350498023277E-004     0.670131190625E-005    -0.101644426782E-006     0.115552762010E-004
     0.220828142239E+003     0.353414201371E-004     0.675706748170E-005    -0.102490118435E-006     0.117602564378E-004
     0.222828142239E+003     0.356325498565E-004     0.681272973727E-005    -0.103334394627E-006     0.119669252271E-004
     0.224828142239E+003     0.359231923013E-004     0.686829882885E-005    -0.104177257723E-006     0.121752797425E-004
     0.226828142239E+003     0.362133482854E-004     0.692377491208E-005    -0.105018710085E-006     0.123853171627E-004
     0.228828142239E+003     0.365030186212E-004     0.697915814226E-005    -0.105858754067E-006     0.125970346708E-004
     0.230828142239E+003     0.367922041194E-004     0.703444867440E-005    -0.106697392022E-006     0.128104294549E-004
     0.232828142239E+003     0.370809055891E-004     0.708964666320E-005    -0.107534626295E-006     0.130254987075E-004
     0.234828142239E+003     0.373691238377E-004     0.714475226303E-005    -0.108370459230E-006     0.132422396259E-004
     0.236828142239E+003     0.376568596711E-004     0.719976562797E-005    -0.109204893161E-006     0.134606494122E-004
     0.238828142239E+003     0.379441138934E-004     0.725468691173E-005    -0.110037930422E-006     0.136807252731E-004
     0.240828142239E+003     0.382308873067E-004     0.730951626772E-005    -0.110869573340E-006     0.139024644198E-004
     0.242828142239E+003     0.385171807117E-004     0.736425384899E-005    -0.111699824235E-006     0.141258640682E-004
     0.244828142239E+003     0.388029949069E-004     0.741889980823E-005    -0.112528685426E-006     0.143509214391E-004
