 #              _____________________  _______________________             #
 #              ___  __ \__  __ \_  / / /_  /___  ____/_  ___/             #
 #              __  / / /_  /_/ /  / / /_  __/_  __/  _____ \              #
 #              _  /_/ /_  _, _// /_/ / / /_ _  /___  ____/ /              #
 #              /_____/ /_/ |_| \____/  \__/ /_____/  /____/               #
 #                                                                         #
  
 #        time                      c  [M/M]                   concetration [M/M]       zero flux   in    x              directions   cumulative flux
 #-----------------------------------------------------------------------------------------------

     0.000000000000E+000     0.642928000000E-003     0.000000000000E+000     0.000000000000E+000     0.000000000000E+000
     0.100000000000E+000     0.642924278983E-003     0.000000000000E+000     0.000000000000E+000     0.000000000000E+000
     0.206000000000E+000     0.642920334728E-003     0.000000000000E+000     0.000000000000E+000     0.000000000000E+000
     0.318360000000E+000     0.642916153846E-003     0.000000000000E+000     0.000000000000E+000     0.000000000000E+000
     0.437461600000E+000     0.642911722141E-003     0.000000000000E+000     0.000000000000E+000     0.000000000000E+000
     0.563709296000E+000     0.642907024568E-003     0.000000000000E+000     0.000000000000E+000     0.000000000000E+000
     0.697531853760E+000     0.642902045180E-003     0.000000000000E+000     0.000000000000E+000     0.000000000000E+000
     0.839383764986E+000     0.642896767071E-003     0.000000000000E+000     0.000000000000E+000     0.000000000000E+000
     0.989746790885E+000     0.642891172325E-003     0.000000000000E+000     0.000000000000E+000     0.000000000000E+000
     0.114913159834E+001     0.642885241949E-003     0.000000000000E+000     0.000000000000E+000     0.000000000000E+000
     0.131807949424E+001     0.642878955811E-003     0.000000000000E+000     0.000000000000E+000     0.000000000000E+000
     0.149716426389E+001     0.642872292574E-003     0.000000000000E+000     0.000000000000E+000     0.000000000000E+000
     0.168699411973E+001     0.642865229621E-003     0.000000000000E+000     0.000000000000E+000     0.000000000000E+000
     0.188821376691E+001     0.642857742978E-003     0.000000000000E+000     0.000000000000E+000     0.000000000000E+000
     0.210150659292E+001     0.642849807234E-003     0.000000000000E+000     0.000000000000E+000     0.000000000000E+000
     0.232759698850E+001     0.642841395455E-003     0.000000000000E+000     0.000000000000E+000     0.000000000000E+000
     0.256725280781E+001     0.642832479094E-003     0.000000000000E+000     0.000000000000E+000     0.000000000000E+000
     0.282128797628E+001     0.642823027889E-003     0.000000000000E+000     0.000000000000E+000     0.000000000000E+000
     0.309056525485E+001     0.642813009769E-003     0.000000000000E+000     0.000000000000E+000     0.000000000000E+000
     0.337599917015E+001     0.642802390737E-003     0.000000000000E+000     0.000000000000E+000     0.000000000000E+000
     0.367855912035E+001     0.642791134760E-003     0.000000000000E+000     0.000000000000E+000     0.000000000000E+000
     0.399927266758E+001     0.642779203645E-003     0.000000000000E+000     0.000000000000E+000     0.000000000000E+000
     0.433922902763E+001     0.642766556913E-003     0.000000000000E+000     0.000000000000E+000     0.000000000000E+000
     0.469958276929E+001     0.642753151656E-003     0.000000000000E+000     0.000000000000E+000     0.000000000000E+000
     0.508155773545E+001     0.642738942399E-003     0.000000000000E+000     0.000000000000E+000     0.000000000000E+000
     0.548645119957E+001     0.642723880938E-003     0.000000000000E+000     0.000000000000E+000     0.000000000000E+000
     0.591563827155E+001     0.642707916187E-003     0.000000000000E+000     0.000000000000E+000     0.000000000000E+000
     0.637057656784E+001     0.642690993996E-003     0.000000000000E+000     0.000000000000E+000     0.000000000000E+000
     0.685281116191E+001     0.642673056974E-003     0.000000000000E+000     0.000000000000E+000     0.000000000000E+000
     0.736397983162E+001     0.642654044293E-003     0.000000000000E+000     0.000000000000E+000     0.000000000000E+000
     0.790581862152E+001     0.642633891484E-003     0.000000000000E+000     0.000000000000E+000     0.000000000000E+000
     0.848016773881E+001     0.642612530216E-003     0.000000000000E+000     0.000000000000E+000     0.000000000000E+000
     0.908897780314E+001     0.642589888069E-003     0.000000000000E+000     0.000000000000E+000     0.000000000000E+000
     0.973431647133E+001     0.642565888291E-003     0.000000000000E+000     0.000000000000E+000     0.000000000000E+000
     0.104183754596E+002     0.642540449533E-003     0.000000000000E+000     0.000000000000E+000     0.000000000000E+000
     0.111434779872E+002     0.642513485580E-003     0.000000000000E+000     0.000000000000E+000     0.000000000000E+000
     0.119120866664E+002     0.642484905063E-003     0.000000000000E+000     0.000000000000E+000     0.000000000000E+000
     0.127268118664E+002     0.642454611142E-003     0.000000000000E+000     0.000000000000E+000     0.000000000000E+000
     0.135904205784E+002     0.642422501191E-003     0.000000000000E+000     0.000000000000E+000     0.000000000000E+000
     0.145058458131E+002     0.642388466447E-003     0.000000000000E+000     0.000000000000E+000     0.000000000000E+000
     0.154761965619E+002     0.642352391643E-003     0.000000000000E+000     0.000000000000E+000     0.000000000000E+000
     0.165047683556E+002     0.642314154628E-003     0.000000000000E+000     0.000000000000E+000     0.000000000000E+000
     0.175950544569E+002     0.642273625949E-003     0.000000000000E+000     0.000000000000E+000     0.000000000000E+000
     0.187507577243E+002     0.642230668423E-003     0.000000000000E+000     0.000000000000E+000     0.000000000000E+000
     0.199758031878E+002     0.642185136674E-003     0.000000000000E+000     0.000000000000E+000     0.000000000000E+000
     0.212743513791E+002     0.642136876646E-003     0.000000000000E+000     0.000000000000E+000     0.000000000000E+000
     0.226508124618E+002     0.642085725092E-003     0.000000000000E+000     0.000000000000E+000     0.000000000000E+000
     0.241098612095E+002     0.642031509023E-003     0.000000000000E+000     0.000000000000E+000     0.000000000000E+000
     0.256564528821E+002     0.641974045134E-003     0.000000000000E+000     0.000000000000E+000     0.000000000000E+000
     0.272958400550E+002     0.641913139190E-003     0.000000000000E+000     0.000000000000E+000     0.000000000000E+000
     0.290335904583E+002     0.641848585382E-003     0.000000000000E+000     0.000000000000E+000     0.000000000000E+000
     0.308756058858E+002     0.641780165639E-003     0.000000000000E+000     0.000000000000E+000     0.000000000000E+000
     0.328281422390E+002     0.641707648907E-003     0.000000000000E+000     0.000000000000E+000     0.000000000000E+000
     0.348281422390E+002     0.641633377983E-003     0.000000000000E+000     0.000000000000E+000     0.000000000000E+000
     0.368281422390E+002     0.641559115656E-003     0.000000000000E+000     0.000000000000E+000     0.000000000000E+000
     0.388281422390E+002     0.641484861923E-003     0.000000000000E+000     0.000000000000E+000     0.000000000000E+000
     0.408281422390E+002     0.641410616785E-003     0.000000000000E+000     0.000000000000E+000     0.000000000000E+000
     0.428281422390E+002     0.641336380239E-003     0.000000000000E+000     0.000000000000E+000     0.000000000000E+000
     0.448281422390E+002     0.641262152286E-003     0.000000000000E+000     0.000000000000E+000     0.000000000000E+000
     0.468281422390E+002     0.641187932924E-003     0.000000000000E+000     0.000000000000E+000     0.000000000000E+000
     0.488281422390E+002     0.641113722152E-003     0.000000000000E+000     0.000000000000E+000     0.000000000000E+000
     0.508281422390E+002     0.641039519969E-003     0.000000000000E+000     0.000000000000E+000     0.000000000000E+000
     0.528281422390E+002     0.640965326375E-003     0.000000000000E+000     0.000000000000E+000     0.000000000000E+000
     0.548281422390E+002     0.640891141367E-003     0.000000000000E+000     0.000000000000E+000     0.000000000000E+000
     0.568281422390E+002     0.640816964946E-003     0.000000000000E+000     0.000000000000E+000     0.000000000000E+000
     0.588281422390E+002     0.640742797109E-003     0.000000000000E+000     0.000000000000E+000     0.000000000000E+000
     0.608281422390E+002     0.640668637857E-003     0.000000000000E+000     0.000000000000E+000     0.000000000000E+000
     0.628281422390E+002     0.640594487188E-003     0.000000000000E+000     0.000000000000E+000     0.000000000000E+000
     0.648281422390E+002     0.640520345101E-003     0.000000000000E+000     0.000000000000E+000     0.000000000000E+000
     0.668281422390E+002     0.640446211596E-003     0.000000000000E+000     0.000000000000E+000     0.000000000000E+000
     0.688281422390E+002     0.640372086670E-003     0.000000000000E+000     0.000000000000E+000     0.000000000000E+000
     0.708281422390E+002     0.640297970324E-003     0.000000000000E+000     0.000000000000E+000     0.000000000000E+000
     0.728281422390E+002     0.640223862556E-003     0.000000000000E+000     0.000000000000E+000     0.000000000000E+000
     0.748281422390E+002     0.640149763365E-003     0.000000000000E+000     0.000000000000E+000     0.000000000000E+000
     0.768281422390E+002     0.640075672750E-003     0.000000000000E+000     0.000000000000E+000     0.000000000000E+000
     0.788281422390E+002     0.640001590710E-003     0.000000000000E+000     0.000000000000E+000     0.000000000000E+000
     0.808281422390E+002     0.639927517245E-003     0.000000000000E+000     0.000000000000E+000     0.000000000000E+000
     0.828281422390E+002     0.639853452353E-003     0.000000000000E+000     0.000000000000E+000     0.000000000000E+000
     0.848281422390E+002     0.639779396033E-003     0.000000000000E+000     0.000000000000E+000     0.000000000000E+000
     0.868281422390E+002     0.639705348285E-003     0.000000000000E+000     0.000000000000E+000     0.000000000000E+000
     0.888281422390E+002     0.639631309106E-003     0.000000000000E+000     0.000000000000E+000     0.000000000000E+000
     0.908281422390E+002     0.639557278497E-003     0.000000000000E+000     0.000000000000E+000     0.000000000000E+000
     0.928281422390E+002     0.639483256456E-003     0.000000000000E+000     0.000000000000E+000     0.000000000000E+000
     0.948281422390E+002     0.639409242983E-003     0.000000000000E+000     0.000000000000E+000     0.000000000000E+000
     0.968281422390E+002     0.639335238075E-003     0.000000000000E+000     0.000000000000E+000     0.000000000000E+000
     0.988281422390E+002     0.639261241733E-003     0.000000000000E+000     0.000000000000E+000     0.000000000000E+000
     0.100828142239E+003     0.639187253956E-003     0.000000000000E+000     0.000000000000E+000     0.000000000000E+000
     0.102828142239E+003     0.639113274741E-003     0.000000000000E+000     0.000000000000E+000     0.000000000000E+000
     0.104828142239E+003     0.639039304089E-003     0.000000000000E+000     0.000000000000E+000     0.000000000000E+000
     0.106828142239E+003     0.638965341999E-003     0.000000000000E+000     0.000000000000E+000     0.000000000000E+000
     0.108828142239E+003     0.638891388468E-003     0.000000000000E+000     0.000000000000E+000     0.000000000000E+000
     0.110828142239E+003     0.638817443497E-003     0.000000000000E+000     0.000000000000E+000     0.000000000000E+000
     0.112828142239E+003     0.638743507084E-003     0.000000000000E+000     0.000000000000E+000     0.000000000000E+000
     0.114828142239E+003     0.638669579229E-003     0.000000000000E+000     0.000000000000E+000     0.000000000000E+000
     0.116828142239E+003     0.638595659930E-003     0.000000000000E+000     0.000000000000E+000     0.000000000000E+000
     0.118828142239E+003     0.638521749187E-003     0.000000000000E+000     0.000000000000E+000     0.000000000000E+000
     0.120828142239E+003     0.638447846997E-003     0.000000000000E+000     0.000000000000E+000     0.000000000000E+000
     0.122828142239E+003     0.638373953362E-003     0.000000000000E+000     0.000000000000E+000     0.000000000000E+000
     0.124828142239E+003     0.638300068278E-003     0.000000000000E+000     0.000000000000E+000     0.000000000000E+000
     0.126828142239E+003     0.638226191746E-003     0.000000000000E+000     0.000000000000E+000     0.000000000000E+000
     0.128828142239E+003     0.638152323765E-003     0.000000000000E+000     0.000000000000E+000     0.000000000000E+000
     0.130828142239E+003     0.638078464333E-003     0.000000000000E+000     0.000000000000E+000     0.000000000000E+000
     0.132828142239E+003     0.638004613449E-003     0.000000000000E+000     0.000000000000E+000     0.000000000000E+000
     0.134828142239E+003     0.637930771113E-003     0.000000000000E+000     0.000000000000E+000     0.000000000000E+000
     0.136828142239E+003     0.637856937323E-003     0.000000000000E+000     0.000000000000E+000     0.000000000000E+000
     0.138828142239E+003     0.637783112079E-003     0.000000000000E+000     0.000000000000E+000     0.000000000000E+000
     0.140828142239E+003     0.637709295379E-003     0.000000000000E+000     0.000000000000E+000     0.000000000000E+000
     0.142828142239E+003     0.637635487223E-003     0.000000000000E+000     0.000000000000E+000     0.000000000000E+000
     0.144828142239E+003     0.637561687609E-003     0.000000000000E+000     0.000000000000E+000     0.000000000000E+000
     0.146828142239E+003     0.637487896537E-003     0.000000000000E+000     0.000000000000E+000     0.000000000000E+000
     0.148828142239E+003     0.637414114006E-003     0.000000000000E+000     0.000000000000E+000     0.000000000000E+000
     0.150828142239E+003     0.637340340014E-003     0.000000000000E+000     0.000000000000E+000     0.000000000000E+000
     0.152828142239E+003     0.637266574560E-003     0.000000000000E+000     0.000000000000E+000     0.000000000000E+000
     0.154828142239E+003     0.637192817644E-003     0.000000000000E+000     0.000000000000E+000     0.000000000000E+000
     0.156828142239E+003     0.637119069265E-003     0.000000000000E+000     0.000000000000E+000     0.000000000000E+000
     0.158828142239E+003     0.637045329421E-003     0.000000000000E+000     0.000000000000E+000     0.000000000000E+000
     0.160828142239E+003     0.636971598112E-003     0.000000000000E+000     0.000000000000E+000     0.000000000000E+000
     0.162828142239E+003     0.636897875337E-003     0.000000000000E+000     0.000000000000E+000     0.000000000000E+000
     0.164828142239E+003     0.636824161094E-003     0.000000000000E+000     0.000000000000E+000     0.000000000000E+000
     0.166828142239E+003     0.636750455383E-003     0.000000000000E+000     0.000000000000E+000     0.000000000000E+000
     0.168828142239E+003     0.636676758202E-003     0.000000000000E+000     0.000000000000E+000     0.000000000000E+000
     0.170828142239E+003     0.636603069551E-003     0.000000000000E+000     0.000000000000E+000     0.000000000000E+000
     0.172828142239E+003     0.636529389429E-003     0.000000000000E+000     0.000000000000E+000     0.000000000000E+000
     0.174828142239E+003     0.636455717835E-003     0.000000000000E+000     0.000000000000E+000     0.000000000000E+000
     0.176828142239E+003     0.636382054767E-003     0.000000000000E+000     0.000000000000E+000     0.000000000000E+000
     0.178828142239E+003     0.636308400225E-003     0.000000000000E+000     0.000000000000E+000     0.000000000000E+000
     0.180828142239E+003     0.636234754208E-003     0.000000000000E+000     0.000000000000E+000     0.000000000000E+000
     0.182828142239E+003     0.636161116714E-003     0.000000000000E+000     0.000000000000E+000     0.000000000000E+000
     0.184828142239E+003     0.636087487743E-003     0.000000000000E+000     0.000000000000E+000     0.000000000000E+000
     0.186828142239E+003     0.636013867294E-003     0.000000000000E+000     0.000000000000E+000     0.000000000000E+000
     0.188828142239E+003     0.635940255366E-003     0.000000000000E+000     0.000000000000E+000     0.000000000000E+000
     0.190828142239E+003     0.635866651958E-003     0.000000000000E+000     0.000000000000E+000     0.000000000000E+000
     0.192828142239E+003     0.635793057068E-003     0.000000000000E+000     0.000000000000E+000     0.000000000000E+000
     0.194828142239E+003     0.635719470696E-003     0.000000000000E+000     0.000000000000E+000     0.000000000000E+000
     0.196828142239E+003     0.635645892842E-003     0.000000000000E+000     0.000000000000E+000     0.000000000000E+000
     0.198828142239E+003     0.635572323503E-003     0.000000000000E+000     0.000000000000E+000     0.000000000000E+000
     0.200828142239E+003     0.635498762678E-003     0.000000000000E+000     0.000000000000E+000     0.000000000000E+000
     0.202828142239E+003     0.635425210368E-003     0.000000000000E+000     0.000000000000E+000     0.000000000000E+000
     0.204828142239E+003     0.635351666571E-003     0.000000000000E+000     0.000000000000E+000     0.000000000000E+000
     0.206828142239E+003     0.635278131285E-003     0.000000000000E+000     0.000000000000E+000     0.000000000000E+000
     0.208828142239E+003     0.635204604511E-003     0.000000000000E+000     0.000000000000E+000     0.000000000000E+000
     0.210828142239E+003     0.635131086246E-003     0.000000000000E+000     0.000000000000E+000     0.000000000000E+000
     0.212828142239E+003     0.635057576491E-003     0.000000000000E+000     0.000000000000E+000     0.000000000000E+000
     0.214828142239E+003     0.634984075243E-003     0.000000000000E+000     0.000000000000E+000     0.000000000000E+000
     0.216828142239E+003     0.634910582503E-003     0.000000000000E+000     0.000000000000E+000     0.000000000000E+000
     0.218828142239E+003     0.634837098268E-003     0.000000000000E+000     0.000000000000E+000     0.000000000000E+000
     0.220828142239E+003     0.634763622539E-003     0.000000000000E+000     0.000000000000E+000     0.000000000000E+000
     0.222828142239E+003     0.634690155313E-003     0.000000000000E+000     0.000000000000E+000     0.000000000000E+000
     0.224828142239E+003     0.634616696591E-003     0.000000000000E+000     0.000000000000E+000     0.000000000000E+000
     0.226828142239E+003     0.634543246370E-003     0.000000000000E+000     0.000000000000E+000     0.000000000000E+000
     0.228828142239E+003     0.634469804651E-003     0.000000000000E+000     0.000000000000E+000     0.000000000000E+000
     0.230828142239E+003     0.634396371432E-003     0.000000000000E+000     0.000000000000E+000     0.000000000000E+000
     0.232828142239E+003     0.634322946712E-003     0.000000000000E+000     0.000000000000E+000     0.000000000000E+000
     0.234828142239E+003     0.634249530490E-003     0.000000000000E+000     0.000000000000E+000     0.000000000000E+000
     0.236828142239E+003     0.634176122765E-003     0.000000000000E+000     0.000000000000E+000     0.000000000000E+000
     0.238828142239E+003     0.634102723537E-003     0.000000000000E+000     0.000000000000E+000     0.000000000000E+000
     0.240828142239E+003     0.634029332804E-003     0.000000000000E+000     0.000000000000E+000     0.000000000000E+000
     0.242828142239E+003     0.633955950564E-003     0.000000000000E+000     0.000000000000E+000     0.000000000000E+000
     0.244828142239E+003     0.633882576818E-003     0.000000000000E+000     0.000000000000E+000     0.000000000000E+000
