 #              _____________________  _______________________             #
 #              ___  __ \__  __ \_  / / /_  /___  ____/_  ___/             #
 #              __  / / /_  /_/ /  / / /_  __/_  __/  _____ \              #
 #              _  /_/ /_  _, _// /_/ / / /_ _  /___  ____/ /              #
 #              /_____/ /_/ |_| \____/  \__/ /_____/  /____/               #
 #                                                                         #
  
 #        time                      c  [M/M]                   concetration [M/M]       zero flux   in    x              directions   cumulative flux
 #-----------------------------------------------------------------------------------------------

     0.000000000000E+000     0.642928000000E-003     0.000000000000E+000     0.000000000000E+000     0.000000000000E+000
     0.100000000000E+000     0.564646484089E-003     0.000000000000E+000     0.000000000000E+000     0.000000000000E+000
     0.206000000000E+000     0.508358105131E-003     0.000000000000E+000     0.000000000000E+000     0.000000000000E+000
     0.318360000000E+000     0.468650285938E-003     0.000000000000E+000     0.000000000000E+000     0.000000000000E+000
     0.437461600000E+000     0.441190128726E-003     0.000000000000E+000     0.000000000000E+000     0.000000000000E+000
     0.563709296000E+000     0.422587880289E-003     0.000000000000E+000     0.000000000000E+000     0.000000000000E+000
     0.697531853760E+000     0.410253330668E-003     0.000000000000E+000     0.000000000000E+000     0.000000000000E+000
     0.839383764986E+000     0.402254411952E-003     0.000000000000E+000     0.000000000000E+000     0.000000000000E+000
     0.989746790885E+000     0.397185213739E-003     0.000000000000E+000     0.000000000000E+000     0.000000000000E+000
     0.114913159834E+001     0.394048370464E-003     0.000000000000E+000     0.000000000000E+000     0.000000000000E+000
     0.131807949424E+001     0.392154572255E-003     0.000000000000E+000     0.000000000000E+000     0.000000000000E+000
     0.149716426389E+001     0.391040019914E-003     0.000000000000E+000     0.000000000000E+000     0.000000000000E+000
     0.168699411973E+001     0.390401125586E-003     0.000000000000E+000     0.000000000000E+000     0.000000000000E+000
     0.188821376691E+001     0.390044712814E-003     0.000000000000E+000     0.000000000000E+000     0.000000000000E+000
     0.210150659292E+001     0.389851379998E-003     0.000000000000E+000     0.000000000000E+000     0.000000000000E+000
     0.232759698850E+001     0.389749493275E-003     0.000000000000E+000     0.000000000000E+000     0.000000000000E+000
     0.256725280781E+001     0.389697371316E-003     0.000000000000E+000     0.000000000000E+000     0.000000000000E+000
     0.282128797628E+001     0.389671510225E-003     0.000000000000E+000     0.000000000000E+000     0.000000000000E+000
     0.309056525485E+001     0.389659075711E-003     0.000000000000E+000     0.000000000000E+000     0.000000000000E+000
     0.337599917015E+001     0.389653286741E-003     0.000000000000E+000     0.000000000000E+000     0.000000000000E+000
     0.367855912035E+001     0.389650679382E-003     0.000000000000E+000     0.000000000000E+000     0.000000000000E+000
     0.399927266758E+001     0.389649544194E-003     0.000000000000E+000     0.000000000000E+000     0.000000000000E+000
     0.433922902763E+001     0.389649066835E-003     0.000000000000E+000     0.000000000000E+000     0.000000000000E+000
     0.469958276929E+001     0.389648873113E-003     0.000000000000E+000     0.000000000000E+000     0.000000000000E+000
     0.508155773545E+001     0.389648797304E-003     0.000000000000E+000     0.000000000000E+000     0.000000000000E+000
     0.548645119957E+001     0.389648768720E-003     0.000000000000E+000     0.000000000000E+000     0.000000000000E+000
     0.591563827155E+001     0.389648758343E-003     0.000000000000E+000     0.000000000000E+000     0.000000000000E+000
     0.637057656784E+001     0.389648754719E-003     0.000000000000E+000     0.000000000000E+000     0.000000000000E+000
     0.685281116191E+001     0.389648753502E-003     0.000000000000E+000     0.000000000000E+000     0.000000000000E+000
     0.736397983162E+001     0.389648753110E-003     0.000000000000E+000     0.000000000000E+000     0.000000000000E+000
     0.790581862152E+001     0.389648752988E-003     0.000000000000E+000     0.000000000000E+000     0.000000000000E+000
     0.848016773881E+001     0.389648752952E-003     0.000000000000E+000     0.000000000000E+000     0.000000000000E+000
     0.908897780314E+001     0.389648752942E-003     0.000000000000E+000     0.000000000000E+000     0.000000000000E+000
     0.973431647133E+001     0.389648752939E-003     0.000000000000E+000     0.000000000000E+000     0.000000000000E+000
     0.104183754596E+002     0.389648752938E-003     0.000000000000E+000     0.000000000000E+000     0.000000000000E+000
     0.111434779872E+002     0.389648752938E-003     0.000000000000E+000     0.000000000000E+000     0.000000000000E+000
     0.119120866664E+002     0.389648752938E-003     0.000000000000E+000     0.000000000000E+000     0.000000000000E+000
     0.127268118664E+002     0.389648752938E-003     0.000000000000E+000     0.000000000000E+000     0.000000000000E+000
     0.135904205784E+002     0.389648752938E-003     0.000000000000E+000     0.000000000000E+000     0.000000000000E+000
     0.145058458131E+002     0.389648752938E-003     0.000000000000E+000     0.000000000000E+000     0.000000000000E+000
     0.154761965619E+002     0.389648752938E-003     0.000000000000E+000     0.000000000000E+000     0.000000000000E+000
     0.165047683556E+002     0.389648752938E-003     0.000000000000E+000     0.000000000000E+000     0.000000000000E+000
     0.175950544569E+002     0.389648752938E-003     0.000000000000E+000     0.000000000000E+000     0.000000000000E+000
     0.187507577243E+002     0.389648752938E-003     0.000000000000E+000     0.000000000000E+000     0.000000000000E+000
     0.199758031878E+002     0.389648752938E-003     0.000000000000E+000     0.000000000000E+000     0.000000000000E+000
     0.212743513791E+002     0.389648752938E-003     0.000000000000E+000     0.000000000000E+000     0.000000000000E+000
     0.226508124618E+002     0.389648752938E-003     0.000000000000E+000     0.000000000000E+000     0.000000000000E+000
     0.241098612095E+002     0.389648752938E-003     0.000000000000E+000     0.000000000000E+000     0.000000000000E+000
     0.256564528821E+002     0.389648752938E-003     0.000000000000E+000     0.000000000000E+000     0.000000000000E+000
     0.272958400550E+002     0.389648752938E-003     0.000000000000E+000     0.000000000000E+000     0.000000000000E+000
     0.290335904583E+002     0.389648752938E-003     0.000000000000E+000     0.000000000000E+000     0.000000000000E+000
     0.308756058858E+002     0.389648752938E-003     0.000000000000E+000     0.000000000000E+000     0.000000000000E+000
     0.328281422390E+002     0.389648752938E-003     0.000000000000E+000     0.000000000000E+000     0.000000000000E+000
     0.348281422390E+002     0.389648752938E-003     0.000000000000E+000     0.000000000000E+000     0.000000000000E+000
     0.368281422390E+002     0.389648752938E-003     0.000000000000E+000     0.000000000000E+000     0.000000000000E+000
     0.388281422390E+002     0.389648752938E-003     0.000000000000E+000     0.000000000000E+000     0.000000000000E+000
     0.408281422390E+002     0.389648752938E-003     0.000000000000E+000     0.000000000000E+000     0.000000000000E+000
     0.428281422390E+002     0.389648752938E-003     0.000000000000E+000     0.000000000000E+000     0.000000000000E+000
     0.448281422390E+002     0.389648752938E-003     0.000000000000E+000     0.000000000000E+000     0.000000000000E+000
     0.468281422390E+002     0.389648752938E-003     0.000000000000E+000     0.000000000000E+000     0.000000000000E+000
     0.488281422390E+002     0.389648752938E-003     0.000000000000E+000     0.000000000000E+000     0.000000000000E+000
     0.508281422390E+002     0.389648752938E-003     0.000000000000E+000     0.000000000000E+000     0.000000000000E+000
     0.528281422390E+002     0.389648752938E-003     0.000000000000E+000     0.000000000000E+000     0.000000000000E+000
     0.548281422390E+002     0.389648752938E-003     0.000000000000E+000     0.000000000000E+000     0.000000000000E+000
     0.568281422390E+002     0.389648752938E-003     0.000000000000E+000     0.000000000000E+000     0.000000000000E+000
     0.588281422390E+002     0.389648752938E-003     0.000000000000E+000     0.000000000000E+000     0.000000000000E+000
     0.608281422390E+002     0.389648752938E-003     0.000000000000E+000     0.000000000000E+000     0.000000000000E+000
     0.628281422390E+002     0.389648752938E-003     0.000000000000E+000     0.000000000000E+000     0.000000000000E+000
     0.648281422390E+002     0.389648752938E-003     0.000000000000E+000     0.000000000000E+000     0.000000000000E+000
     0.668281422390E+002     0.389648752938E-003     0.000000000000E+000     0.000000000000E+000     0.000000000000E+000
     0.688281422390E+002     0.389648752938E-003     0.000000000000E+000     0.000000000000E+000     0.000000000000E+000
     0.708281422390E+002     0.389648752938E-003     0.000000000000E+000     0.000000000000E+000     0.000000000000E+000
     0.728281422390E+002     0.389648752938E-003     0.000000000000E+000     0.000000000000E+000     0.000000000000E+000
     0.748281422390E+002     0.389648752938E-003     0.000000000000E+000     0.000000000000E+000     0.000000000000E+000
     0.768281422390E+002     0.389648752938E-003     0.000000000000E+000     0.000000000000E+000     0.000000000000E+000
     0.788281422390E+002     0.389648752938E-003     0.000000000000E+000     0.000000000000E+000     0.000000000000E+000
     0.808281422390E+002     0.389648752938E-003     0.000000000000E+000     0.000000000000E+000     0.000000000000E+000
     0.828281422390E+002     0.389648752938E-003     0.000000000000E+000     0.000000000000E+000     0.000000000000E+000
     0.848281422390E+002     0.389648752938E-003     0.000000000000E+000     0.000000000000E+000     0.000000000000E+000
     0.868281422390E+002     0.389648752938E-003     0.000000000000E+000     0.000000000000E+000     0.000000000000E+000
     0.888281422390E+002     0.389648752938E-003     0.000000000000E+000     0.000000000000E+000     0.000000000000E+000
     0.908281422390E+002     0.389648752938E-003     0.000000000000E+000     0.000000000000E+000     0.000000000000E+000
     0.928281422390E+002     0.389648752938E-003     0.000000000000E+000     0.000000000000E+000     0.000000000000E+000
     0.948281422390E+002     0.389648752938E-003     0.000000000000E+000     0.000000000000E+000     0.000000000000E+000
     0.968281422390E+002     0.389648752938E-003     0.000000000000E+000     0.000000000000E+000     0.000000000000E+000
     0.988281422390E+002     0.389648752938E-003     0.000000000000E+000     0.000000000000E+000     0.000000000000E+000
     0.100828142239E+003     0.389648752938E-003     0.000000000000E+000     0.000000000000E+000     0.000000000000E+000
     0.102828142239E+003     0.389648752938E-003     0.000000000000E+000     0.000000000000E+000     0.000000000000E+000
     0.104828142239E+003     0.389648752938E-003     0.000000000000E+000     0.000000000000E+000     0.000000000000E+000
     0.106828142239E+003     0.389648752938E-003     0.000000000000E+000     0.000000000000E+000     0.000000000000E+000
     0.108828142239E+003     0.389648752938E-003     0.000000000000E+000     0.000000000000E+000     0.000000000000E+000
     0.110828142239E+003     0.389648752938E-003     0.000000000000E+000     0.000000000000E+000     0.000000000000E+000
     0.112828142239E+003     0.389648752938E-003     0.000000000000E+000     0.000000000000E+000     0.000000000000E+000
     0.114828142239E+003     0.389648752938E-003     0.000000000000E+000     0.000000000000E+000     0.000000000000E+000
     0.116828142239E+003     0.389648752938E-003     0.000000000000E+000     0.000000000000E+000     0.000000000000E+000
     0.118828142239E+003     0.389648752938E-003     0.000000000000E+000     0.000000000000E+000     0.000000000000E+000
     0.120828142239E+003     0.389648752938E-003     0.000000000000E+000     0.000000000000E+000     0.000000000000E+000
     0.122828142239E+003     0.389648752938E-003     0.000000000000E+000     0.000000000000E+000     0.000000000000E+000
     0.124828142239E+003     0.389648752938E-003     0.000000000000E+000     0.000000000000E+000     0.000000000000E+000
     0.126828142239E+003     0.389648752938E-003     0.000000000000E+000     0.000000000000E+000     0.000000000000E+000
     0.128828142239E+003     0.389648752938E-003     0.000000000000E+000     0.000000000000E+000     0.000000000000E+000
     0.130828142239E+003     0.389648752938E-003     0.000000000000E+000     0.000000000000E+000     0.000000000000E+000
     0.132828142239E+003     0.389648752938E-003     0.000000000000E+000     0.000000000000E+000     0.000000000000E+000
     0.134828142239E+003     0.389648752938E-003     0.000000000000E+000     0.000000000000E+000     0.000000000000E+000
     0.136828142239E+003     0.389648752938E-003     0.000000000000E+000     0.000000000000E+000     0.000000000000E+000
     0.138828142239E+003     0.389648752938E-003     0.000000000000E+000     0.000000000000E+000     0.000000000000E+000
     0.140828142239E+003     0.389648752938E-003     0.000000000000E+000     0.000000000000E+000     0.000000000000E+000
     0.142828142239E+003     0.389648752938E-003     0.000000000000E+000     0.000000000000E+000     0.000000000000E+000
     0.144828142239E+003     0.389648752938E-003     0.000000000000E+000     0.000000000000E+000     0.000000000000E+000
     0.146828142239E+003     0.389648752938E-003     0.000000000000E+000     0.000000000000E+000     0.000000000000E+000
     0.148828142239E+003     0.389648752938E-003     0.000000000000E+000     0.000000000000E+000     0.000000000000E+000
     0.150828142239E+003     0.389648752938E-003     0.000000000000E+000     0.000000000000E+000     0.000000000000E+000
     0.152828142239E+003     0.389648752938E-003     0.000000000000E+000     0.000000000000E+000     0.000000000000E+000
     0.154828142239E+003     0.389648752938E-003     0.000000000000E+000     0.000000000000E+000     0.000000000000E+000
     0.156828142239E+003     0.389648752938E-003     0.000000000000E+000     0.000000000000E+000     0.000000000000E+000
     0.158828142239E+003     0.389648752938E-003     0.000000000000E+000     0.000000000000E+000     0.000000000000E+000
     0.160828142239E+003     0.389648752938E-003     0.000000000000E+000     0.000000000000E+000     0.000000000000E+000
     0.162828142239E+003     0.389648752938E-003     0.000000000000E+000     0.000000000000E+000     0.000000000000E+000
     0.164828142239E+003     0.389648752938E-003     0.000000000000E+000     0.000000000000E+000     0.000000000000E+000
     0.166828142239E+003     0.389648752938E-003     0.000000000000E+000     0.000000000000E+000     0.000000000000E+000
     0.168828142239E+003     0.389648752938E-003     0.000000000000E+000     0.000000000000E+000     0.000000000000E+000
     0.170828142239E+003     0.389648752938E-003     0.000000000000E+000     0.000000000000E+000     0.000000000000E+000
     0.172828142239E+003     0.389648752938E-003     0.000000000000E+000     0.000000000000E+000     0.000000000000E+000
     0.174828142239E+003     0.389648752938E-003     0.000000000000E+000     0.000000000000E+000     0.000000000000E+000
     0.176828142239E+003     0.389648752938E-003     0.000000000000E+000     0.000000000000E+000     0.000000000000E+000
     0.178828142239E+003     0.389648752938E-003     0.000000000000E+000     0.000000000000E+000     0.000000000000E+000
     0.180828142239E+003     0.389648752938E-003     0.000000000000E+000     0.000000000000E+000     0.000000000000E+000
     0.182828142239E+003     0.389648752938E-003     0.000000000000E+000     0.000000000000E+000     0.000000000000E+000
     0.184828142239E+003     0.389648752938E-003     0.000000000000E+000     0.000000000000E+000     0.000000000000E+000
     0.186828142239E+003     0.389648752938E-003     0.000000000000E+000     0.000000000000E+000     0.000000000000E+000
     0.188828142239E+003     0.389648752938E-003     0.000000000000E+000     0.000000000000E+000     0.000000000000E+000
     0.190828142239E+003     0.389648752938E-003     0.000000000000E+000     0.000000000000E+000     0.000000000000E+000
     0.192828142239E+003     0.389648752938E-003     0.000000000000E+000     0.000000000000E+000     0.000000000000E+000
     0.194828142239E+003     0.389648752938E-003     0.000000000000E+000     0.000000000000E+000     0.000000000000E+000
     0.196828142239E+003     0.389648752938E-003     0.000000000000E+000     0.000000000000E+000     0.000000000000E+000
     0.198828142239E+003     0.389648752938E-003     0.000000000000E+000     0.000000000000E+000     0.000000000000E+000
     0.200828142239E+003     0.389648752938E-003     0.000000000000E+000     0.000000000000E+000     0.000000000000E+000
     0.202828142239E+003     0.389648752938E-003     0.000000000000E+000     0.000000000000E+000     0.000000000000E+000
     0.204828142239E+003     0.389648752938E-003     0.000000000000E+000     0.000000000000E+000     0.000000000000E+000
     0.206828142239E+003     0.389648752938E-003     0.000000000000E+000     0.000000000000E+000     0.000000000000E+000
     0.208828142239E+003     0.389648752938E-003     0.000000000000E+000     0.000000000000E+000     0.000000000000E+000
     0.210828142239E+003     0.389648752938E-003     0.000000000000E+000     0.000000000000E+000     0.000000000000E+000
     0.212828142239E+003     0.389648752938E-003     0.000000000000E+000     0.000000000000E+000     0.000000000000E+000
     0.214828142239E+003     0.389648752938E-003     0.000000000000E+000     0.000000000000E+000     0.000000000000E+000
     0.216828142239E+003     0.389648752938E-003     0.000000000000E+000     0.000000000000E+000     0.000000000000E+000
     0.218828142239E+003     0.389648752938E-003     0.000000000000E+000     0.000000000000E+000     0.000000000000E+000
     0.220828142239E+003     0.389648752938E-003     0.000000000000E+000     0.000000000000E+000     0.000000000000E+000
     0.222828142239E+003     0.389648752938E-003     0.000000000000E+000     0.000000000000E+000     0.000000000000E+000
     0.224828142239E+003     0.389648752938E-003     0.000000000000E+000     0.000000000000E+000     0.000000000000E+000
     0.226828142239E+003     0.389648752938E-003     0.000000000000E+000     0.000000000000E+000     0.000000000000E+000
     0.228828142239E+003     0.389648752938E-003     0.000000000000E+000     0.000000000000E+000     0.000000000000E+000
     0.230828142239E+003     0.389648752938E-003     0.000000000000E+000     0.000000000000E+000     0.000000000000E+000
     0.232828142239E+003     0.389648752938E-003     0.000000000000E+000     0.000000000000E+000     0.000000000000E+000
     0.234828142239E+003     0.389648752938E-003     0.000000000000E+000     0.000000000000E+000     0.000000000000E+000
     0.236828142239E+003     0.389648752938E-003     0.000000000000E+000     0.000000000000E+000     0.000000000000E+000
     0.238828142239E+003     0.389648752938E-003     0.000000000000E+000     0.000000000000E+000     0.000000000000E+000
     0.240828142239E+003     0.389648752938E-003     0.000000000000E+000     0.000000000000E+000     0.000000000000E+000
     0.242828142239E+003     0.389648752938E-003     0.000000000000E+000     0.000000000000E+000     0.000000000000E+000
     0.244828142239E+003     0.389648752938E-003     0.000000000000E+000     0.000000000000E+000     0.000000000000E+000
