 #              _____________________  _______________________             #
 #              ___  __ \__  __ \_  / / /_  /___  ____/_  ___/             #
 #              __  / / /_  /_/ /  / / /_  __/_  __/  _____ \              #
 #              _  /_/ /_  _, _// /_/ / / /_ _  /___  ____/ /              #
 #              /_____/ /_/ |_| \____/  \__/ /_____/  /____/               #
 #                                                                         #
  
 #        time                      [L]                   runoff elevation [m a.m.s.l]       runoff flux [L3.T-1.L-2]   in    x              directions   cumulative flux
 #-----------------------------------------------------------------------------------------------

   0.0000000000000000        0.0000000000000000       -0.0000000000000000        0.0000000000000000     
   1.0000000000000000E-004   0.0000000000000000       -0.0000000000000000        0.0000000000000000     
   2.0600000000000002E-004   0.0000000000000000       -0.0000000000000000        0.0000000000000000     
   3.1836000000000006E-004   0.0000000000000000       -0.0000000000000000        0.0000000000000000     
   4.3746160000000009E-004   0.0000000000000000       -0.0000000000000000        0.0000000000000000     
   5.6370929600000014E-004   3.8138940883989017E-008  -2.0574589459018324E-017   2.0574589459018324E-017
   6.9753185376000013E-004   4.5947716129402976E-007  -1.3026368091122153E-015   1.3232113985712337E-015
   8.3938376498560023E-004   1.2078984448433405E-006  -6.5228015756366138E-015   7.8460129742078481E-015
   9.8974679088473629E-004   2.2528803708257578E-006  -1.8433749536798768E-014   2.6279762511006615E-014
   1.1491315983378205E-003   3.5781036962857694E-006  -3.9853977222898290E-014   6.6133739733904898E-014
   1.3180794942380899E-003   5.1759992119107991E-006  -7.3740679150280332E-014   1.3987441888418523E-013
   1.4971642638923754E-003   7.0448578835227429E-006  -1.2326426526256460E-013   2.6313868414674982E-013
   1.6869941197259180E-003   9.1871841838986814E-006  -1.9187607935083436E-013   4.5501476349758418E-013
   1.8882137669094731E-003   1.1608707572878351E-005  -2.8337176992536942E-013   7.3838653342295365E-013
   2.1015065929240414E-003   1.4317767323040562E-005  -4.0195333035345241E-013   1.1403398637764060E-012
   2.3275969884994840E-003   1.7324921475054049E-005  -5.5229221558391474E-013   1.6926320793603209E-012
   2.5672528078094533E-003   2.0642696985049733E-005  -7.3959538615194881E-013   2.4322274655122697E-012
   2.8212879762780207E-003   2.4285432677604386E-005  -9.6967576082677431E-013   3.4019032263390440E-012
   3.0905652548547020E-003   2.8269185618365754E-005  -1.2490283415864193E-012   4.6509315679254630E-012
   3.3759991701459843E-003   3.2611682452431247E-005  -1.5849131617750917E-012   6.2358447297005545E-012
   3.6785591203547436E-003   3.7332303793938852E-005  -1.9854461662584244E-012   8.2212908959589793E-012
   3.9992726675760282E-003   4.2452093799175735E-005  -2.4596991392179431E-012   1.0680990035176922E-011
   4.3392290276305897E-003   4.7993789636438721E-005  -3.0178098374049626E-012   1.3698799872581884E-011
   4.6995827692884254E-003   5.3981867257165974E-005  -3.6711035560830418E-012   1.7369903428664926E-011
   5.0815577354457308E-003   6.0442601009092620E-005  -4.4322274468032354E-012   2.1802130875468160E-011
   5.4864511995724747E-003   6.7404135413532269E-005  -5.3152990180146468E-012   2.7117429893482807E-011
   5.9156382715468232E-003   7.4896567978356007E-005  -6.3360703801576471E-012   3.3453500273640454E-011
   6.3705765678396331E-003   8.2952042313260481E-005  -7.5121099461100636E-012   4.0965610219750521E-011
   6.8528111619100118E-003   9.1604851104309330E-005  -8.8630034661188591E-012   4.9828613685869379E-011
   7.3639798316246126E-003   1.0089154872320189E-004  -1.0410576464614109E-011   6.0239190150483490E-011
   7.9058186215220892E-003   1.1085107341514552E-004  -1.2179140355934520E-011   7.2418330506418013E-011
   8.4801677388134152E-003   1.2152487914245373E-004  -1.4195764748703176E-011   8.6614095255121194E-011
   9.0889778031422210E-003   1.3295707726935477E-004  -1.6490578706406369E-011   1.0310467396152757E-010
   9.7343164713307555E-003   1.4519458836419400E-004  -1.9097104016978337E-011   1.2220177797850590E-010
   1.0418375459610602E-002   1.5828730447339510E-004  -2.2052623839520127E-011   1.4425440181802602E-010
   1.1143477987187239E-002   1.7228826229093625E-004  -2.5398590444641530E-011   1.6965299226266756E-010
   1.1912086666418473E-002   1.8725382771042713E-004  -2.9181076149607275E-011   1.9883406841227483E-010
   1.2726811866403582E-002   2.0324389230618947E-004  -3.3451271974156437E-011   2.3228534038643126E-010
   1.3590420578387798E-002   2.2032208234657992E-004  -3.8266039011599336E-011   2.7055137939803059E-010
   1.4505845813091067E-002   2.3855598099835936E-004  -4.3688518027068585E-011   3.1423989742509916E-010
   1.5476196561876531E-002   2.5801736443613099E-004  -4.9788803365561121E-011   3.6402870079066026E-010
   1.6504768355589124E-002   2.7878245262650945E-004  -5.6644687882132065E-011   4.2067338867279234E-010
   1.7595054456924473E-002   3.0093217561335324E-004  -6.4342486301322518E-011   4.8501587497411480E-010
   1.8750757724339942E-002   3.2455245618863220E-004  -7.2977945179286835E-011   5.5799382015340159E-010
   1.9975803187800338E-002   3.4973450989375350E-004  -8.2657248487477261E-011   6.4065106864087883E-010
   2.1274351379068360E-002   3.7657516335883918E-004  -9.3498128769244203E-011   7.3414919741012309E-010
   2.2650812461812463E-002   4.0517719205291350E-004  -1.0563109484926159E-010   8.3978029225938472E-010
   2.4109861209521213E-002   4.3564967858655688E-004  -1.1920078821013497E-010   9.5898108046951969E-010
   2.5656452882092486E-002   4.6810839278064087E-004  -1.3436748140175863E-010   1.0933485618712783E-009
   2.7295840055018037E-002   5.0267619479061731E-004  -1.5130873322894023E-010   1.2446572951002185E-009
   2.9033590458319120E-002   5.3948346265578239E-004  -1.7022121698469789E-010   1.4148785120849163E-009
   3.0875605885818270E-002   5.7866854572733491E-004  -1.9132273967503093E-010   1.6062012517599472E-009
   3.2828142238967364E-002   6.2037824551817490E-004  -2.1485447203189369E-010   1.8210557237918409E-009
   3.4897830773305411E-002   6.6476832561163503E-004  -2.4108341115228208E-010   2.0621391349441228E-009
   3.7091700619703738E-002   7.1200405236599719E-004  -2.7030509985224854E-010   2.3324442347963715E-009
   3.9417202656885961E-002   7.6226076825711749E-004  -3.0284662930680970E-010   2.6352908641031810E-009
   4.1882234816299123E-002   8.1572449981312002E-004  -3.3906995428379353E-010   2.9743608183869746E-009
   4.4495168905277070E-002   8.7259260221333264E-004  -3.7937555329781102E-010   3.3537363716847856E-009
   4.7264879039593699E-002   9.3307444274881763E-004  -4.2420646933853279E-010   3.7779428410233185E-009
   5.0200771781969321E-002   9.9739212547446344E-004  -4.7405277049704090E-010   4.2519956115203595E-009
   5.3312818088887486E-002   1.0657812595230749E-003  -5.2945647386020453E-010   4.7814520853805638E-009
   5.6611587174220740E-002   1.1384917737007425E-003  -5.9101698050436333E-010   5.3724690658849274E-009
   6.0108282404673988E-002   1.2157887801404726E-003  -6.5939707433860056E-010   6.0318661402235277E-009
   6.3814779348954437E-002   1.2979534899581944E-003  -7.3532954297143987E-010   6.7671956831949679E-009
   6.7743666109891701E-002   1.3852841840323307E-003  -8.1962448475449148E-010   7.5868201679494588E-009
   7.1908286076485209E-002   1.4780972422158455E-003  -9.1317737274945490E-010   8.4999975406989132E-009
   7.6322783241074332E-002   1.5767282344885680E-003  -1.0169779536335758E-009   9.5169754943324882E-009
   8.1002150235538792E-002   1.6815330777684256E-003  -1.1321200675724502E-009   1.0649095561904939E-008
   8.5962279249671120E-002   1.7928892623236717E-003  -1.2598124839241342E-009   1.1908908045829073E-008
   9.1220016004651391E-002   1.9111971519649999E-003  -1.4013908573789194E-009   1.3310298903207992E-008
   9.6793216964930484E-002   2.0368813624474943E-003  -1.5583309198775288E-009   1.4868629823085521E-008
  0.10270080998282632        2.1703922227783905E-003  -1.7322630354888986E-009   1.6600892858574419E-008
  0.10896285858179591        2.3122073244086641E-003  -1.9249882584797447E-009   1.8525881117054165E-008
  0.11560063009670367        2.4628331635853699E-003  -2.1384960491957658E-009   2.0664377166249929E-008
  0.12263666790250589        2.6228068824585035E-003  -2.3749838182352876E-009   2.3039360984485216E-008
  0.13009486797665626        2.7926981148720009E-003  -2.6368784868811219E-009   2.5676239471366339E-008
  0.13800056005525563        2.9731109431244671E-003  -2.9268602710314340E-009   2.8603099742397773E-008
  0.14638059365857098        3.1646859723625806E-003  -3.2478889171185550E-009   3.1850988659516325E-008
  0.15526342927808526        3.3681025296700600E-003  -3.6032326419275673E-009   3.5454221301443894E-008
  0.16467923503477039        3.5840809953390502E-003  -3.9965000540466565E-009   3.9450721355490550E-008
  0.17465998913685662        3.8133852742601756E-003  -4.4316753631435140E-009   4.3882396718634064E-008
  0.18523958848506802        4.0568254158438342E-003  -4.9131572146367115E-009   4.8795553933270777E-008
  0.19645396379417213        4.3152603913902384E-003  -5.4458015219155556E-009   5.4241355455186334E-008
  0.20834120162182246        4.5896010383608930E-003  -6.0349687063845248E-009   6.0276324161570860E-008
  0.22094167371913181        4.8808131815715281E-003  -6.6865757976306687E-009   6.6962899959201530E-008
  0.23429817414227974        5.1899209419278315E-003  -7.4071538923326586E-009   7.4370053851534190E-008
  0.24845606459081654        5.5180102439627270E-003  -8.2039115215877300E-009   8.2573965373121918E-008
  0.26346342846626553        5.8662325341096297E-003  -9.0848045326119287E-009   9.1658769905733849E-008
  0.27937123417424148        6.2358087223622254E-003  -1.0058613152802532E-008   1.0171738305853638E-007
  0.29623350822469596        6.6280333607305376E-003  -1.1135026972528383E-008   1.1285241003106476E-007
  0.31410751871817771        7.0442790727076286E-003  -1.2324738658380658E-008   1.2517714868944542E-007
  0.33305396984126839        7.4860012488143328E-003  -1.3639547291688984E-008   1.3881669598113441E-007
  0.35313720803174453        7.9547430241934513E-003  -1.5092472318671406E-008   1.5390916829980581E-007
  0.37442544051364923        8.4521405551831914E-003  -1.6697879199509697E-008   1.7060704749931549E-007
  0.39699096694446823        8.9799286128155187E-003  -1.8471617954879828E-008   1.8907866545419532E-007
  0.42091042496113634        9.5399465122618116E-003  -2.0431175931073977E-008   2.0950984138526929E-007
  0.44626505045880455        1.0134144398389501E-002  -2.2595846239986480E-008   2.3210568762525577E-007
  0.47314095348633284        1.0764589908803386E-002  -2.4986913479182287E-008   2.5709260110443804E-007
  0.50162941069551281        1.1433475237027434E-002  -2.7627858501430097E-008   2.8472045960586816E-007
  0.53182717533724366        1.2143124619842450E-002  -3.0544584184021461E-008   3.1526504378988962E-007
  0.56383680585747831        1.2896002274235563E-002  -3.3765664347619792E-008   3.4903070813750942E-007
  0.59776701420892708        1.3694720810945029E-002  -3.7322618194181853E-008   3.8635332633169128E-007
  0.63373303506146272        1.4542050153202438E-002  -4.1250212875743854E-008   4.2760353920743516E-007
  0.67185701716515056        1.5440926990990578E-002  -4.5586797072861643E-008   4.7319033628029683E-007
  0.71226843819505958        1.6394464802953944E-002  -5.0374668755762520E-008   5.2356500503605931E-007
  0.75510454448676323        1.7405964480027115E-002  -5.5660480625592003E-008   5.7922548566165133E-007
  0.80051081715596906        1.8478925586889374E-002  -6.1495687090585872E-008   6.4072117275223725E-007
  0.84864146618532721        1.9617058299520741E-002  -6.7937037025954913E-008   7.0865820977819215E-007
  0.89965995415644684        2.0824296059430033E-002  -7.5047117000453094E-008   7.8370532677864526E-007
  0.95373955140583366        2.2104808987560131E-002  -8.2894950131127694E-008   8.6660027690977293E-007
   1.0110639244901838        2.3463018103454643E-002  -9.1556656255133841E-008   9.5815693316490666E-007
   1.0718277599595949        2.4903610398005264E-002  -1.0111617968873773E-007   1.0592731128536443E-006
   1.1362374255571706        2.6431554810997380E-002  -1.1166609148421584E-007   1.1709392043378601E-006
   1.2045116710906008        2.8052119167743802E-002  -1.2330847380134656E-007   1.2942476781392067E-006
   1.2768823713560369        2.9770888132353224E-002  -1.3615589478825604E-007   1.4304035729274627E-006
   1.3535953136373993        3.1593782238631928E-002  -1.5033248322388050E-007   1.5807360561513431E-006
   1.4349110324556433        3.3527078063275928E-002  -1.6597511311934219E-007   1.7467111692706854E-006
   1.5211056944029819        3.5577429609889605E-002  -1.8323470951705087E-007   1.9299458787877361E-006
   1.6124720360671609        3.7751890976477270E-002  -2.0227768787416223E-007   2.1322235666618985E-006
   1.7093203582311907        4.0057940383412025E-002  -2.2328754068201759E-007   2.3555111073439160E-006
   1.8119795797250622        4.2503505643504969E-002  -2.4646658636729706E-007   2.6019776937112130E-006
   1.9207983545085661        4.5096991160693413E-002  -2.7203789705701150E-007   2.8740155907682245E-006
   2.0361462557790801        4.7847306549056681E-002  -3.0024742348268016E-007   3.1742630142509048E-006
   2.1584150311258252        5.0763896969367908E-002  -3.3136633716504499E-007   3.5056293514159497E-006
   2.2880199329933748        5.3856775286221598E-002  -3.6569361207714550E-007   3.8713229634930952E-006
   2.4254011289729775        5.7136556154956067E-002  -4.0355887024989036E-007   4.2748818337429860E-006
   2.5710251967113562        6.0614492154141254E-002  -4.4532551828188036E-007   4.7202073520248661E-006
   2.7253867085140375        6.4302512086345479E-002  -4.9139420446770143E-007   5.2116015564925678E-006
   2.8890099110248801        6.8213261577255130E-002  -5.4220662929226711E-007   5.7538081857848347E-006
   3.0624505056863729        7.2360146111022206E-002  -5.9824974538165735E-007   6.3520579311664925E-006
   3.2462975360275554        7.6757376647983919E-002  -6.6006038668487518E-007   7.0121183178513677E-006
   3.4411753881892091        8.1420017979664014E-002  -7.2823037072082040E-007   7.7403486885721875E-006
   3.6477459114805617        8.6364039985255547E-002  -8.0341212219886591E-007   8.5437608107710534E-006
   3.8667106661693955        9.1606371963633124E-002  -8.8632487125203412E-007   9.4300856820230877E-006
   4.0988133061395597        9.7164960225380723E-002  -9.7776148495540427E-007   1.0407847166978492E-005
   4.3448421045079337       0.10305882914038589       -1.0785959967903957E-006   1.1486443163768887E-005
   4.6056326307784099       0.10930814584827869       -1.1897919053144845E-006   1.2676235069083372E-005
   4.8820705886251146       0.11593428885142522       -1.3124113205680426E-006   1.3988646389651415E-005
   5.1750948239426213       0.12295992072336172       -1.4476250447639817E-006   1.5436271434415396E-005
   5.4857005133791787       0.13040906517952330       -1.5967236826374660E-006   1.7032995117052863E-005
   5.8149425441819300       0.13830718877192455       -1.7611298865654012E-006   1.8794125003618262E-005
   6.1639390968328458       0.14668128748514220       -1.9424118522907106E-006   2.0736536855908974E-005
   6.5338754426428167       0.15555997852758338       -2.1422981929057480E-006   2.2878835048814723E-005
   6.9260079692013861       0.16497359762965508       -2.3626943317742166E-006   2.5241529380588940E-005
   7.3416684473534692       0.17495430217913641       -2.6057005694244966E-006   2.7847229950013437E-005
   7.7822685541946779       0.18553618054386645       -2.8736319952650083E-006   3.0720861945278448E-005
   8.2493046674463599       0.19675536795285786       -3.1690404324033137E-006   3.3889902377681760E-005
   8.7443629474931424       0.20865016932920111       -3.4947386230596584E-006   3.7384641000741418E-005
   9.2691247243427313       0.22126118949171888       -3.8538268832339840E-006   4.1238467883975400E-005
   9.8253722078032961       0.23463147116733080       -4.2497224786126129E-006   4.5488190362588013E-005
   10.414994540271495       0.24880664128252000       -4.6861919994049999E-006   5.0174382361993011E-005
   11.039994212687786       0.26383506602704604       -5.1673870400193728E-006   5.5341769402012382E-005
   11.702493865449053       0.27976801512265431       -5.6978835176070850E-006   6.1039652919619463E-005
   12.404743497375996       0.29665983411669367       -6.2827249388461821E-006   6.7322377858465644E-005
   13.149128107218557       0.31456810293526632       -6.9274691857588624E-006   7.4249847044224502E-005
   13.938175793651672       0.33355357934633134       -7.6382313133522399E-006   8.1888078357576747E-005
   14.774566341270774       0.35367863999563631       -8.4216693018183352E-006   9.0309747659395080E-005
   15.661140321747020       0.37499846828985040       -9.2846589077201164E-006   9.9594406567115202E-005
   16.600908741051843       0.39752761120379726       -1.0232826929695261E-005   1.0982723349681046E-004
   17.597063265514954       0.42115014659532002       -1.1266224235684049E-005   1.2109345773249451E-004
   18.652987061445852       0.44545559295810028       -1.2370601703091234E-005   1.3346405943558576E-004
   19.772266285132606       0.46956717723977465       -1.3506609715258385E-005   1.4697066915084415E-004
   20.958702262240564       0.49214230271127901       -1.4606111967070590E-005   1.6157678111791473E-004
   22.216324397974997       0.51169202355454801       -1.5585875725003537E-005   1.7716265684291827E-004
   23.549403861853499       0.52710465847449295       -1.6376140460601429E-005   1.9353879730351969E-004
   24.962468093564709       0.53802926423708486       -1.6945717458345743E-005   2.1048451476186544E-004
   26.460316179178594       0.54488122578917120       -1.7306923381691310E-005   2.2779143814355676E-004
   28.048035149929312       0.54854504152981642       -1.7501312520221525E-005   2.4529275066377830E-004
   29.731017258925071       0.55001556049621847       -1.7579577143246194E-005   2.6287232780702451E-004
   31.514978294460576       0.55015199752377442       -1.7586845736302399E-005   2.8045917354332689E-004
   33.405976992128210       0.54958070376003598       -1.7556418456963111E-005   2.9801559200028999E-004
   35.410435611655906       0.54870173789731802       -1.7509645634828933E-005   3.1552523763511892E-004
   37.535161748355264       0.54774150984985048       -1.7458605631246672E-005   3.3298384326636561E-004
   39.787371453256583       0.54681210887178389       -1.7409260986790927E-005   3.5039310425315651E-004
   42.174713740451978       0.54595915699264641       -1.7364024425772892E-005   3.6775712867892941E-004
   44.705296564879099       0.54519402647487081       -1.7323485564154172E-005   3.8508061424308358E-004
   47.387714358771845       0.54451281574362509       -1.7287424920338870E-005   4.0236803916342246E-004
   50.231077220298161       0.54390626152230470       -1.7255341602689871E-005   4.1962338076611232E-004
   53.245041853516049       0.54336428957927474       -1.7226694495899809E-005   4.3685007526201214E-004
   56.439844364727016       0.54287776398972654       -1.7200994346832813E-005   4.5405106960884497E-004
   59.826335026610636       0.54243894404195703       -1.7177827359150366E-005   4.7122889696799534E-004
   63.416015128207277       0.54204143036155483       -1.7156851870272043E-005   4.8838574883826736E-004
   67.221076035899713       0.54167995777793687       -1.7137787051808253E-005   5.0552353589007561E-004
