 #              _____________________  _______________________             #
 #              ___  __ \__  __ \_  / / /_  /___  ____/_  ___/             #
 #              __  / / /_  /_/ /  / / /_  __/_  __/  _____ \              #
 #              _  /_/ /_  _, _// /_/ / / /_ _  /___  ____/ /              #
 #              /_____/ /_/ |_| \____/  \__/ /_____/  /____/               #
 #                                                                         #
  
 #        time                      [L]                   runoff elevation [m a.m.s.l]       runoff flux [L3.T-1.L-2]   in    x              directions   cumulative flux
 #-----------------------------------------------------------------------------------------------

   0.0000000000000000          0.0000000000000000          -0.0000000000000000          0.0000000000000000     
   1.0000000000000000          0.0000000000000000          -0.0000000000000000          0.0000000000000000     
   2.0060000000000002          3.0179999999899398E-002     -4.6523682858226033E-007     4.6523682858226033E-007
   3.0180360000000004          6.0541079999690502E-002     -1.4844274192333599E-006     1.9585708123310202E-006
   4.0361442160000003          9.1084318914848944E-002     -2.9323426666113277E-006     4.9262071552776813E-006
   5.0603610812960005         0.12180954974850017          -4.7600435265779406E-006     9.7724465782042976E-006
   6.0907232477837763         0.15268723467684084          -6.9365988077675518E-006     1.6877028064911951E-005
   7.1272675872704792         0.18346665820719443          -9.4204275017188559E-006     2.6583480154824019E-005
   8.1700311927941023         0.21318817201246515          -1.2098936677095701E-005     3.9124564481275619E-005
   9.2190513799508675         0.23989762324050409          -1.4729407235513300E-005     5.4483854277405204E-005
   10.274365688230573         0.26141865132113001          -1.6996897045484949E-005     7.2313942397144083E-005
   11.336011882359955         0.27670809748436492          -1.8685804817469537E-005     9.2033339582741529E-005
   12.404027953654115         0.28632315207796405          -1.9780448672070725E-005     1.1303317763361703E-004
   13.478452121376039         0.29175307430571285          -2.0409596994449238E-005     1.3483095523232578E-004
   14.559322834104295         0.29455014846288691          -2.0736753767317456E-005     1.5711102464003031E-004
   15.646678771108920         0.29588094731669567          -2.0893139068612269E-005     1.7969380675625184E-004
   16.740558843735574         0.29647086882610474          -2.0962612403266350E-005     2.0248762780807032E-004
   17.841002196797987         0.29671591404853243          -2.0991497777199372E-005     2.2544980892113539E-004
   18.948048209978776         0.29681167133606828          -2.1002789751666275E-005     2.4856218929912393E-004
   20.061736499238648         0.29684698080633515          -2.1006954158813560E-005     2.7181785414971004E-004
   21.182106918234080         0.29685930434754454          -2.1008407677879119E-005     2.9521467175656121E-004
   22.309199559743483         0.29686339390604694          -2.1008890036050746E-005     3.1875241068888031E-004
   23.443054757101944         0.29686469591615544          -2.1009043607400102E-005     3.4243154914393115E-004
   24.583713085644554         0.29686510064458627          -2.1009091344979054E-005     3.6625281655721428E-004
   25.731215364158420         0.29686522580427349          -2.1009106107529825E-005     3.9021702841400362E-004
   26.885602656343369         0.29686526200346602          -2.1009110377215419E-005     4.1432503044140764E-004
   28.046916272281429         0.29686526576722488          -2.1009110821149849E-005     4.3857768099344837E-004
   29.215197769915118         0.29686525465015340          -2.1009109509894030E-005     4.6297584592602207E-004
   30.390488956534607         0.29686523583959623          -2.1009107291193564E-005     4.8752039725612450E-004
   31.572831890273815         0.29686521378727493          -2.1009104690127960E-005     5.1221221283719812E-004
   32.762268881615455         0.29686519177450338          -2.1009102093727368E-005     5.3705217624192231E-004
   33.958842494905149         0.29686517203889451          -2.1009099765917615E-005     5.6204117665829172E-004
   35.162595549874581         0.29686515577952760          -2.1009097848129747E-005     5.8718010878238509E-004
   36.373571123173825         0.29686514331331382          -2.1009096377743295E-005     6.1246987272924080E-004
   37.591812549912866         0.29686513434561579          -2.1009095320005834E-005     6.3791137397888335E-004
   38.817363425212342         0.29686512825814521          -2.1009094601990400E-005     6.6350552336130763E-004
   40.050267605763615         0.29686512434187884          -2.1009094140067898E-005     6.8925323707391694E-004
   41.290569211398200         0.29686512194607234          -2.1009093857483199E-005     7.1515543672040212E-004
   42.538312626666588         0.29686512054854330          -2.1009093692645054E-005     7.4121304936031716E-004
   43.793542502426590         0.29686511976946067          -2.1009093600752476E-005     7.6742700756141330E-004
   45.056303757441150         0.29686511935359527          -2.1009093551701269E-005     7.9379824945014551E-004
   46.326641579985797         0.29686511914068936          -2.1009093526589083E-005     8.2032771875849937E-004
   47.604601429465710         0.29686511903599538          -2.1009093514240458E-005     8.4701636486701651E-004
   48.890229038042506         0.29686511898648210          -2.1009093508400382E-005     8.7386514284472133E-004
   50.183570412270761         0.29686511896393475          -2.1009093505740922E-005     9.0087501348687328E-004
   51.484671834744383         0.29686511895403789          -2.1009093504573596E-005     9.2804694335136835E-004
   52.793579865752847         0.29686511894984757          -2.1009093504079345E-005     9.5538190479440741E-004
   54.110341344947365         0.29686511894813650          -2.1009093503877524E-005     9.8288087600584056E-004
   55.435003393017048         0.29686511894746415          -2.1009093503798218E-005     1.0105448410444378E-003
   56.767613413375152         0.29686511894721196          -2.1009093503768474E-005     1.0383747898732273E-003
   58.108219093855404         0.29686511894712397          -2.1009093503758096E-005     1.0663717183949757E-003
   59.456868408418536         0.29686511894709744          -2.1009093503754969E-005     1.0945366284878502E-003
   60.813609618869044         0.29686511894709294          -2.1009093503754437E-005     1.1228705280412815E-003
   62.178491276582257         0.29686511894709500          -2.1009093503754684E-005     1.1513744309920337E-003
   63.551562224241749         0.29686511894709872          -2.1009093503755118E-005     1.1800493573604909E-003
   64.932871597587194         0.29686511894710194          -2.1009093503755501E-005     1.2088963332871593E-003
   66.322468827172713         0.29686511894710477          -2.1009093503755833E-005     1.2379163910693882E-003
   67.720403640135743         0.29686511894710688          -2.1009093503756080E-005     1.2671105691983108E-003
   69.126726061976555         0.29686511894710854          -2.1009093503756280E-005     1.2964799123960072E-003
   70.541486418348413         0.29686511894710998          -2.1009093503756450E-005     1.3260254716528901E-003
   71.964735336858510         0.29686511894711104          -2.1009093503756575E-005     1.3557483042653145E-003
   73.396523748879659         0.29686511894711204          -2.1009093503756690E-005     1.3856494738734135E-003
   74.836902891372944         0.29686511894711287          -2.1009093503756792E-005     1.4157300504991613E-003
   76.285924308721178         0.29686511894711398          -2.1009093503756920E-005     1.4459911105846638E-003
   77.743639854573502         0.29686511894711431          -2.1009093503756958E-005     1.4764337370306794E-003
   79.210101693700949         0.29686511894711493          -2.1009093503757026E-005     1.5070590192353712E-003
   80.685362303863158         0.29686511894711576          -2.1009093503757131E-005     1.5378680531332911E-003
   82.169474477686336         0.29686511894711637          -2.1009093503757202E-005     1.5688619412345989E-003
   83.662491324552448         0.29686511894711703          -2.1009093503757276E-005     1.6000417926645145E-003
   85.164466272499766         0.29686511894711776          -2.1009093503757368E-005     1.6314087232030098E-003
   86.675453070134765         0.29686511894711831          -2.1009093503757432E-005     1.6629638553247361E-003
   88.195505788555579         0.29686511894711881          -2.1009093503757490E-005     1.6947083182391929E-003
   89.724678823286908         0.29686511894711953          -2.1009093503757571E-005     1.7266432479311365E-003
   91.263026896226634         0.29686511894711992          -2.1009093503757622E-005     1.7587697872012318E-003
   92.810605057603993         0.29686511894712059          -2.1009093503757700E-005     1.7910890857069479E-003
   94.367468687949611         0.29686511894712114          -2.1009093503757764E-005     1.8236023000036984E-003
   95.933673500077305         0.29686511894712159          -2.1009093503757815E-005     1.8563105935862296E-003
   97.509275541077770         0.29686511894712214          -2.1009093503757886E-005     1.8892151369302558E-003
   99.094331194324241         0.29686511894712275          -2.1009093503757957E-005     1.9223171075343464E-003
   100.68889718149019         0.29686511894712331          -2.1009093503758022E-005     1.9556176899620616E-003
   102.29303056457913         0.29686511894712386          -2.1009093503758086E-005     1.9891180758843433E-003
   103.90678874796660         0.29686511894712425          -2.1009093503758133E-005     2.0228194641221586E-003
   105.53022948045439         0.29686511894712464          -2.1009093503758177E-005     2.0567230606894009E-003
   107.16341085733713         0.29686511894712503          -2.1009093503758222E-005     2.0908300788360468E-003
   108.80639132248115         0.29686511894712558          -2.1009093503758286E-005     2.1251417390915728E-003
   110.45922967041604         0.29686511894712603          -2.1009093503758340E-005     2.1596592693086318E-003
   112.12198504843853         0.29686511894712669          -2.1009093503758421E-005     2.1943839047069936E-003
   113.79471695872917         0.29686511894712714          -2.1009093503758472E-005     2.2293168879177457E-003
   115.47748526048154         0.29686511894712742          -2.1009093503758506E-005     2.2644594690277623E-003
   117.17035017204444         0.29686511894712775          -2.1009093503758543E-005     2.2998129056244388E-003
   118.87337227307670         0.29686511894712830          -2.1009093503758608E-005     2.3353784628406954E-003
   120.58661250671516         0.29686511894712864          -2.1009093503758648E-005     2.3711574134002498E-003
   122.31013218175545         0.29686511894712903          -2.1009093503758696E-005     2.4071510376631618E-003
   124.04399297484598         0.29686511894712964          -2.1009093503758767E-005     2.4433606236716511E-003
   125.78825693269505         0.29686511894713008          -2.1009093503758818E-005     2.4797874671961917E-003
   127.54298647429123         0.29686511894713036          -2.1009093503758848E-005     2.5164328717818792E-003
   129.30824439313696         0.29686511894713086          -2.1009093503758909E-005     2.5532981487950811E-003
   131.08409385949579         0.29686511894713125          -2.1009093503758960E-005     2.5903846174703624E-003
   132.87059842265276         0.29686511894713125          -2.1009093503758960E-005     2.6276936049576954E-003
   134.66782201318867         0.29686511894713175          -2.1009093503759018E-005     2.6652264463699524E-003
   136.47582894526781         0.29686511894713208          -2.1009093503759055E-005     2.7029844848306833E-003
   138.29468391893943         0.29686511894713247          -2.1009093503759102E-005     2.7409690715221786E-003
   140.12445202245306         0.29686511894713280          -2.1009093503759140E-005     2.7791815657338226E-003
   141.96519873458777         0.29686511894713336          -2.1009093503759204E-005     2.8176233349107367E-003
   143.81698992699529         0.29686511894713358          -2.1009093503759231E-005     2.8562957547027122E-003
   145.67989186655726         0.29686511894713391          -2.1009093503759272E-005     2.8952002090134399E-003
   147.55397121775661         0.29686511894713419          -2.1009093503759302E-005     2.9343380900500320E-003
   149.43929504506315         0.29686511894713463          -2.1009093503759353E-005     2.9737107983728436E-003
   151.33593081533354         0.29686511894713480          -2.1009093503759373E-005     3.0133197429455922E-003
   153.24394640022555         0.29686511894713519          -2.1009093503759418E-005     3.0531663411857775E-003
   155.16341007862690         0.29686511894713563          -2.1009093503759472E-005     3.0932520190154037E-003
   157.09439053909867         0.29686511894713602          -2.1009093503759523E-005     3.1335782109120081E-003
   159.03695688233327         0.29686511894713608          -2.1009093503759529E-005     3.1741463599599920E-003
   160.99117862362726         0.29686511894713646          -2.1009093503759573E-005     3.2149579179022638E-003
   162.95712569536903         0.29686511894713674          -2.1009093503759607E-005     3.2560143451921893E-003
   164.93486844954126         0.29686511894713707          -2.1009093503759645E-005     3.2973171110458545E-003
   166.92447766023849         0.29686511894713719          -2.1009093503759658E-005     3.3388676934946416E-003
   168.92447766023849         0.29686511894713763          -2.1009093503759709E-005     3.3806675794381216E-003
   170.92447766023849         0.29686511894713780          -2.1009093503759729E-005     3.4226857664456409E-003
   172.92447766023849         0.29686511894713807          -2.1009093503759760E-005     3.4647039534531606E-003
   174.92447766023849         0.29686511894713835          -2.1009093503759797E-005     3.5067221404606803E-003
   176.92447766023849         0.29686511894713863          -2.1009093503759828E-005     3.5487403274682000E-003
   178.92447766023849         0.29686511894713874          -2.1009093503759841E-005     3.5907585144757197E-003
   180.92447766023849         0.29686511894713907          -2.1009093503759878E-005     3.6327767014832394E-003
   182.92447766023849         0.29686511894713952          -2.1009093503759929E-005     3.6747948884907592E-003
   184.92447766023849         0.29686511894713963          -2.1009093503759943E-005     3.7168130754982789E-003
   186.92447766023849         0.29686511894713996          -2.1009093503759983E-005     3.7588312625057990E-003
   188.92447766023849         0.29686511894714046          -2.1009093503760048E-005     3.8008494495133192E-003
   190.92447766023849         0.29686511894714052          -2.1009093503760051E-005     3.8428676365208393E-003
   192.92447766023849         0.29686511894714057          -2.1009093503760058E-005     3.8848858235283595E-003
   194.92447766023849         0.29686511894714063          -2.1009093503760065E-005     3.9269040105358796E-003
   196.92447766023849         0.29686511894714107          -2.1009093503760115E-005     3.9689221975433998E-003
   198.92447766023849         0.29686511894714129          -2.1009093503760143E-005     4.0109403845509199E-003
   200.92447766023849         0.29686511894714163          -2.1009093503760180E-005     4.0529585715584401E-003
   202.92447766023849         0.29686511894714174          -2.1009093503760193E-005     4.0949767585659602E-003
   204.92447766023849         0.29686511894714196          -2.1009093503760221E-005     4.1369949455734804E-003
   206.92447766023849         0.29686511894714201          -2.1009093503760227E-005     4.1790131325810005E-003
   208.92447766023849         0.29686511894714229          -2.1009093503760258E-005     4.2210313195885207E-003
   210.92447766023849         0.29686511894714246          -2.1009093503760278E-005     4.2630495065960408E-003
   212.92447766023849         0.29686511894714290          -2.1009093503760336E-005     4.3050676936035618E-003
   214.92447766023849         0.29686511894714296          -2.1009093503760339E-005     4.3470858806110829E-003
   216.92447766023849         0.29686511894714318          -2.1009093503760363E-005     4.3891040676186039E-003
   218.92447766023849         0.29686511894714340          -2.1009093503760390E-005     4.4311222546261249E-003
   220.92447766023849         0.29686511894714357          -2.1009093503760410E-005     4.4731404416336459E-003
   222.92447766023849         0.29686511894714374          -2.1009093503760427E-005     4.5151586286411669E-003
   224.92447766023849         0.29686511894714379          -2.1009093503760434E-005     4.5571768156486879E-003
   226.92447766023849         0.29686511894714412          -2.1009093503760475E-005     4.5991950026562090E-003
   228.92447766023849         0.29686511894714435          -2.1009093503760498E-005     4.6412131896637300E-003
   230.92447766023849         0.29686511894714446          -2.1009093503760512E-005     4.6832313766712510E-003
   232.92447766023849         0.29686511894714468          -2.1009093503760539E-005     4.7252495636787720E-003
   234.92447766023849         0.29686511894714490          -2.1009093503760563E-005     4.7672677506862930E-003
   236.92447766023849         0.29686511894714496          -2.1009093503760570E-005     4.8092859376938140E-003
   238.92447766023849         0.29686511894714523          -2.1009093503760610E-005     4.8513041247013351E-003
   240.92447766023849         0.29686511894714523          -2.1009093503760610E-005     4.8933223117088561E-003
   242.92447766023849         0.29686511894714557          -2.1009093503760647E-005     4.9353404987163771E-003
   244.92447766023849         0.29686511894714573          -2.1009093503760668E-005     4.9773586857238981E-003
   246.92447766023849         0.29686511894714590          -2.1009093503760685E-005     5.0193768727314191E-003
   248.92447766023849         0.29686511894714607          -2.1009093503760705E-005     5.0613950597389401E-003
   250.92447766023849         0.29686511894714607          -2.1009093503760705E-005     5.1034132467464612E-003
   252.92447766023849         0.29686511894714629          -2.1009093503760732E-005     5.1454314337539830E-003
   254.92447766023849         0.29686511894714657          -2.1009093503760763E-005     5.1874496207615049E-003
   256.92447766023849         0.29686511894714662          -2.1009093503760769E-005     5.2294678077690268E-003
   258.92447766023849         0.29686511894714679          -2.1009093503760790E-005     5.2714859947765487E-003
   260.92447766023849         0.29686511894714690          -2.1009093503760803E-005     5.3135041817840706E-003
   262.92447766023849         0.29686511894714684          -2.1009093503760797E-005     5.3555223687915925E-003
   264.92447766023849         0.29686511894714701          -2.1009093503760813E-005     5.3975405557991143E-003
   266.92447766023849         0.29686511894714718          -2.1009093503760834E-005     5.4395587428066362E-003
   268.92447766023849         0.29686511894714745          -2.1009093503760871E-005     5.4815769298141581E-003
   270.92447766023849         0.29686511894714762          -2.1009093503760891E-005     5.5235951168216800E-003
   272.92447766023849         0.29686511894714762          -2.1009093503760891E-005     5.5656133038292019E-003
   274.92447766023849         0.29686511894714784          -2.1009093503760915E-005     5.6076314908367238E-003
   276.92447766023849         0.29686511894714784          -2.1009093503760915E-005     5.6496496778442457E-003
