 #              _____________________  _______________________             #
 #              ___  __ \__  __ \_  / / /_  /___  ____/_  ___/             #
 #              __  / / /_  /_/ /  / / /_  __/_  __/  _____ \              #
 #              _  /_/ /_  _, _// /_/ / / /_ _  /___  ____/ /              #
 #              /_____/ /_/ |_| \____/  \__/ /_____/  /____/               #
 #                                                                         #
  
 #        time                      c  [M/M]                   concetration [M/M]       zero flux   in    x              directions   cumulative flux
 #-----------------------------------------------------------------------------------------------

     0.000000000000E+000     0.642928000000E-003     0.000000000000E+000     0.000000000000E+000     0.000000000000E+000
     0.100000000000E+000     0.641208866893E-003     0.000000000000E+000     0.000000000000E+000     0.000000000000E+000
     0.206000000000E+000     0.639391749948E-003     0.000000000000E+000     0.000000000000E+000     0.000000000000E+000
     0.318360000000E+000     0.637471390997E-003     0.000000000000E+000     0.000000000000E+000     0.000000000000E+000
     0.437461600000E+000     0.635442289856E-003     0.000000000000E+000     0.000000000000E+000     0.000000000000E+000
     0.563709296000E+000     0.633298698282E-003     0.000000000000E+000     0.000000000000E+000     0.000000000000E+000
     0.697531853760E+000     0.631034614502E-003     0.000000000000E+000     0.000000000000E+000     0.000000000000E+000
     0.839383764986E+000     0.628643778438E-003     0.000000000000E+000     0.000000000000E+000     0.000000000000E+000
     0.989746790885E+000     0.626119667797E-003     0.000000000000E+000     0.000000000000E+000     0.000000000000E+000
     0.114913159834E+001     0.623455495157E-003     0.000000000000E+000     0.000000000000E+000     0.000000000000E+000
     0.131807949424E+001     0.620644206258E-003     0.000000000000E+000     0.000000000000E+000     0.000000000000E+000
     0.149716426389E+001     0.617678479689E-003     0.000000000000E+000     0.000000000000E+000     0.000000000000E+000
     0.168699411973E+001     0.614550728195E-003     0.000000000000E+000     0.000000000000E+000     0.000000000000E+000
     0.188821376691E+001     0.611253101851E-003     0.000000000000E+000     0.000000000000E+000     0.000000000000E+000
     0.210150659292E+001     0.607777493382E-003     0.000000000000E+000     0.000000000000E+000     0.000000000000E+000
     0.232759698850E+001     0.604115545912E-003     0.000000000000E+000     0.000000000000E+000     0.000000000000E+000
     0.256725280781E+001     0.600258663480E-003     0.000000000000E+000     0.000000000000E+000     0.000000000000E+000
     0.282128797628E+001     0.596198024664E-003     0.000000000000E+000     0.000000000000E+000     0.000000000000E+000
     0.309056525485E+001     0.591924599694E-003     0.000000000000E+000     0.000000000000E+000     0.000000000000E+000
     0.337599917015E+001     0.587429171458E-003     0.000000000000E+000     0.000000000000E+000     0.000000000000E+000
     0.367855912035E+001     0.582702360841E-003     0.000000000000E+000     0.000000000000E+000     0.000000000000E+000
     0.399927266758E+001     0.577734656841E-003     0.000000000000E+000     0.000000000000E+000     0.000000000000E+000
     0.433922902763E+001     0.572516451962E-003     0.000000000000E+000     0.000000000000E+000     0.000000000000E+000
     0.469958276929E+001     0.567038083375E-003     0.000000000000E+000     0.000000000000E+000     0.000000000000E+000
     0.508155773545E+001     0.561289880360E-003     0.000000000000E+000     0.000000000000E+000     0.000000000000E+000
     0.548645119957E+001     0.555262218586E-003     0.000000000000E+000     0.000000000000E+000     0.000000000000E+000
     0.591563827155E+001     0.548945581726E-003     0.000000000000E+000     0.000000000000E+000     0.000000000000E+000
     0.637057656784E+001     0.542330630965E-003     0.000000000000E+000     0.000000000000E+000     0.000000000000E+000
     0.685281116191E+001     0.535408282901E-003     0.000000000000E+000     0.000000000000E+000     0.000000000000E+000
     0.736397983162E+001     0.528169796308E-003     0.000000000000E+000     0.000000000000E+000     0.000000000000E+000
     0.790581862152E+001     0.520606868223E-003     0.000000000000E+000     0.000000000000E+000     0.000000000000E+000
     0.848016773881E+001     0.512711739697E-003     0.000000000000E+000     0.000000000000E+000     0.000000000000E+000
     0.908897780314E+001     0.504477311501E-003     0.000000000000E+000     0.000000000000E+000     0.000000000000E+000
     0.973431647133E+001     0.495897269959E-003     0.000000000000E+000     0.000000000000E+000     0.000000000000E+000
     0.104183754596E+002     0.486966222914E-003     0.000000000000E+000     0.000000000000E+000     0.000000000000E+000
     0.111434779872E+002     0.477679845683E-003     0.000000000000E+000     0.000000000000E+000     0.000000000000E+000
     0.119120866664E+002     0.468035036626E-003     0.000000000000E+000     0.000000000000E+000     0.000000000000E+000
     0.127268118664E+002     0.458030081709E-003     0.000000000000E+000     0.000000000000E+000     0.000000000000E+000
     0.135904205784E+002     0.447664827137E-003     0.000000000000E+000     0.000000000000E+000     0.000000000000E+000
     0.145058458131E+002     0.436940858808E-003     0.000000000000E+000     0.000000000000E+000     0.000000000000E+000
     0.154761965619E+002     0.425861686924E-003     0.000000000000E+000     0.000000000000E+000     0.000000000000E+000
     0.165047683556E+002     0.414432933695E-003     0.000000000000E+000     0.000000000000E+000     0.000000000000E+000
     0.175950544569E+002     0.402662521568E-003     0.000000000000E+000     0.000000000000E+000     0.000000000000E+000
     0.187507577243E+002     0.390560858897E-003     0.000000000000E+000     0.000000000000E+000     0.000000000000E+000
     0.199758031878E+002     0.378141019447E-003     0.000000000000E+000     0.000000000000E+000     0.000000000000E+000
     0.212743513791E+002     0.365418911507E-003     0.000000000000E+000     0.000000000000E+000     0.000000000000E+000
     0.226508124618E+002     0.352413431843E-003     0.000000000000E+000     0.000000000000E+000     0.000000000000E+000
     0.241098612095E+002     0.339146599120E-003     0.000000000000E+000     0.000000000000E+000     0.000000000000E+000
     0.256564528821E+002     0.325643660900E-003     0.000000000000E+000     0.000000000000E+000     0.000000000000E+000
     0.272958400550E+002     0.311933167844E-003     0.000000000000E+000     0.000000000000E+000     0.000000000000E+000
     0.290335904583E+002     0.298047008336E-003     0.000000000000E+000     0.000000000000E+000     0.000000000000E+000
     0.308756058858E+002     0.284020396544E-003     0.000000000000E+000     0.000000000000E+000     0.000000000000E+000
     0.328281422390E+002     0.269891806819E-003     0.000000000000E+000     0.000000000000E+000     0.000000000000E+000
     0.348281422390E+002     0.256156290002E-003     0.000000000000E+000     0.000000000000E+000     0.000000000000E+000
     0.368281422390E+002     0.243119810420E-003     0.000000000000E+000     0.000000000000E+000     0.000000000000E+000
     0.388281422390E+002     0.230746792195E-003     0.000000000000E+000     0.000000000000E+000     0.000000000000E+000
     0.408281422390E+002     0.219003470002E-003     0.000000000000E+000     0.000000000000E+000     0.000000000000E+000
     0.428281422390E+002     0.207857796924E-003     0.000000000000E+000     0.000000000000E+000     0.000000000000E+000
     0.448281422390E+002     0.197279356997E-003     0.000000000000E+000     0.000000000000E+000     0.000000000000E+000
     0.468281422390E+002     0.187239282207E-003     0.000000000000E+000     0.000000000000E+000     0.000000000000E+000
     0.488281422390E+002     0.177710173710E-003     0.000000000000E+000     0.000000000000E+000     0.000000000000E+000
     0.508281422390E+002     0.168666027064E-003     0.000000000000E+000     0.000000000000E+000     0.000000000000E+000
     0.528281422390E+002     0.160082161261E-003     0.000000000000E+000     0.000000000000E+000     0.000000000000E+000
     0.548281422390E+002     0.151935151375E-003     0.000000000000E+000     0.000000000000E+000     0.000000000000E+000
     0.568281422390E+002     0.144202764641E-003     0.000000000000E+000     0.000000000000E+000     0.000000000000E+000
     0.588281422390E+002     0.136863899774E-003     0.000000000000E+000     0.000000000000E+000     0.000000000000E+000
     0.608281422390E+002     0.129898529395E-003     0.000000000000E+000     0.000000000000E+000     0.000000000000E+000
     0.628281422390E+002     0.123287645367E-003     0.000000000000E+000     0.000000000000E+000     0.000000000000E+000
     0.648281422390E+002     0.117013206931E-003     0.000000000000E+000     0.000000000000E+000     0.000000000000E+000
     0.668281422390E+002     0.111058091470E-003     0.000000000000E+000     0.000000000000E+000     0.000000000000E+000
     0.688281422390E+002     0.105406047782E-003     0.000000000000E+000     0.000000000000E+000     0.000000000000E+000
     0.708281422390E+002     0.100041651734E-003     0.000000000000E+000     0.000000000000E+000     0.000000000000E+000
     0.728281422390E+002     0.949502641665E-004     0.000000000000E+000     0.000000000000E+000     0.000000000000E+000
     0.748281422390E+002     0.901179909471E-004     0.000000000000E+000     0.000000000000E+000     0.000000000000E+000
     0.768281422390E+002     0.855316450526E-004     0.000000000000E+000     0.000000000000E+000     0.000000000000E+000
     0.788281422390E+002     0.811787105828E-004     0.000000000000E+000     0.000000000000E+000     0.000000000000E+000
     0.808281422390E+002     0.770473086054E-004     0.000000000000E+000     0.000000000000E+000     0.000000000000E+000
     0.828281422390E+002     0.731261647384E-004     0.000000000000E+000     0.000000000000E+000     0.000000000000E+000
     0.848281422390E+002     0.694045783837E-004     0.000000000000E+000     0.000000000000E+000     0.000000000000E+000
     0.868281422390E+002     0.658723935248E-004     0.000000000000E+000     0.000000000000E+000     0.000000000000E+000
     0.888281422390E+002     0.625199710127E-004     0.000000000000E+000     0.000000000000E+000     0.000000000000E+000
     0.908281422390E+002     0.593381622599E-004     0.000000000000E+000     0.000000000000E+000     0.000000000000E+000
     0.928281422390E+002     0.563182842754E-004     0.000000000000E+000     0.000000000000E+000     0.000000000000E+000
     0.948281422390E+002     0.534520959687E-004     0.000000000000E+000     0.000000000000E+000     0.000000000000E+000
     0.968281422390E+002     0.507317756606E-004     0.000000000000E+000     0.000000000000E+000     0.000000000000E+000
     0.988281422390E+002     0.481498997380E-004     0.000000000000E+000     0.000000000000E+000     0.000000000000E+000
     0.100828142239E+003     0.456996390508E-004     0.000000000000E+000     0.000000000000E+000     0.000000000000E+000
     0.102828142239E+003     0.433749339059E-004     0.000000000000E+000     0.000000000000E+000     0.000000000000E+000
     0.104828142239E+003     0.411693567480E-004     0.000000000000E+000     0.000000000000E+000     0.000000000000E+000
     0.106828142239E+003     0.390768084549E-004     0.000000000000E+000     0.000000000000E+000     0.000000000000E+000
     0.108828142239E+003     0.370915016167E-004     0.000000000000E+000     0.000000000000E+000     0.000000000000E+000
     0.110828142239E+003     0.352079446603E-004     0.000000000000E+000     0.000000000000E+000     0.000000000000E+000
     0.112828142239E+003     0.334209267760E-004     0.000000000000E+000     0.000000000000E+000     0.000000000000E+000
     0.114828142239E+003     0.317255036083E-004     0.000000000000E+000     0.000000000000E+000     0.000000000000E+000
     0.116828142239E+003     0.301169836705E-004     0.000000000000E+000     0.000000000000E+000     0.000000000000E+000
     0.118828142239E+003     0.285909154486E-004     0.000000000000E+000     0.000000000000E+000     0.000000000000E+000
     0.120828142239E+003     0.271430751592E-004     0.000000000000E+000     0.000000000000E+000     0.000000000000E+000
     0.122828142239E+003     0.257694551284E-004     0.000000000000E+000     0.000000000000E+000     0.000000000000E+000
     0.124828142239E+003     0.244662527607E-004     0.000000000000E+000     0.000000000000E+000     0.000000000000E+000
     0.126828142239E+003     0.232298600690E-004     0.000000000000E+000     0.000000000000E+000     0.000000000000E+000
     0.128828142239E+003     0.220568537363E-004     0.000000000000E+000     0.000000000000E+000     0.000000000000E+000
     0.130828142239E+003     0.209439856822E-004     0.000000000000E+000     0.000000000000E+000     0.000000000000E+000
     0.132828142239E+003     0.198881741111E-004     0.000000000000E+000     0.000000000000E+000     0.000000000000E+000
     0.134828142239E+003     0.188864950136E-004     0.000000000000E+000     0.000000000000E+000     0.000000000000E+000
     0.136828142239E+003     0.179361741032E-004     0.000000000000E+000     0.000000000000E+000     0.000000000000E+000
     0.138828142239E+003     0.170345791612E-004     0.000000000000E+000     0.000000000000E+000     0.000000000000E+000
     0.140828142239E+003     0.161792127740E-004     0.000000000000E+000     0.000000000000E+000     0.000000000000E+000
     0.142828142239E+003     0.153677054389E-004     0.000000000000E+000     0.000000000000E+000     0.000000000000E+000
     0.144828142239E+003     0.145978090220E-004     0.000000000000E+000     0.000000000000E+000     0.000000000000E+000
     0.146828142239E+003     0.138673905502E-004     0.000000000000E+000     0.000000000000E+000     0.000000000000E+000
     0.148828142239E+003     0.131744263192E-004     0.000000000000E+000     0.000000000000E+000     0.000000000000E+000
     0.150828142239E+003     0.125169963028E-004     0.000000000000E+000     0.000000000000E+000     0.000000000000E+000
     0.152828142239E+003     0.118932788471E-004     0.000000000000E+000     0.000000000000E+000     0.000000000000E+000
     0.154828142239E+003     0.113015456360E-004     0.000000000000E+000     0.000000000000E+000     0.000000000000E+000
     0.156828142239E+003     0.107401569136E-004     0.000000000000E+000     0.000000000000E+000     0.000000000000E+000
     0.158828142239E+003     0.102075569506E-004     0.000000000000E+000     0.000000000000E+000     0.000000000000E+000
     0.160828142239E+003     0.970226974262E-005     0.000000000000E+000     0.000000000000E+000     0.000000000000E+000
     0.162828142239E+003     0.922289492827E-005     0.000000000000E+000     0.000000000000E+000     0.000000000000E+000
     0.164828142239E+003     0.876810391550E-005     0.000000000000E+000     0.000000000000E+000     0.000000000000E+000
     0.166828142239E+003     0.833663620643E-005     0.000000000000E+000     0.000000000000E+000     0.000000000000E+000
     0.168828142239E+003     0.792729590992E-005     0.000000000000E+000     0.000000000000E+000     0.000000000000E+000
     0.170828142239E+003     0.753894843249E-005     0.000000000000E+000     0.000000000000E+000     0.000000000000E+000
     0.172828142239E+003     0.717051733847E-005     0.000000000000E+000     0.000000000000E+000     0.000000000000E+000
     0.174828142239E+003     0.682098137086E-005     0.000000000000E+000     0.000000000000E+000     0.000000000000E+000
     0.176828142239E+003     0.648937162448E-005     0.000000000000E+000     0.000000000000E+000     0.000000000000E+000
     0.178828142239E+003     0.617476886391E-005     0.000000000000E+000     0.000000000000E+000     0.000000000000E+000
     0.180828142239E+003     0.587630097855E-005     0.000000000000E+000     0.000000000000E+000     0.000000000000E+000
     0.182828142239E+003     0.559314056804E-005     0.000000000000E+000     0.000000000000E+000     0.000000000000E+000
     0.184828142239E+003     0.532450265123E-005     0.000000000000E+000     0.000000000000E+000     0.000000000000E+000
     0.186828142239E+003     0.506964249243E-005     0.000000000000E+000     0.000000000000E+000     0.000000000000E+000
     0.188828142239E+003     0.482785353894E-005     0.000000000000E+000     0.000000000000E+000     0.000000000000E+000
     0.190828142239E+003     0.459846546424E-005     0.000000000000E+000     0.000000000000E+000     0.000000000000E+000
     0.192828142239E+003     0.438084231134E-005     0.000000000000E+000     0.000000000000E+000     0.000000000000E+000
     0.194828142239E+003     0.417438073121E-005     0.000000000000E+000     0.000000000000E+000     0.000000000000E+000
     0.196828142239E+003     0.397850831142E-005     0.000000000000E+000     0.000000000000E+000     0.000000000000E+000
     0.198828142239E+003     0.379268199045E-005     0.000000000000E+000     0.000000000000E+000     0.000000000000E+000
     0.200828142239E+003     0.361638655315E-005     0.000000000000E+000     0.000000000000E+000     0.000000000000E+000
     0.202828142239E+003     0.344913320333E-005     0.000000000000E+000     0.000000000000E+000     0.000000000000E+000
     0.204828142239E+003     0.329045820942E-005     0.000000000000E+000     0.000000000000E+000     0.000000000000E+000
     0.206828142239E+003     0.313992161958E-005     0.000000000000E+000     0.000000000000E+000     0.000000000000E+000
     0.208828142239E+003     0.299710604262E-005     0.000000000000E+000     0.000000000000E+000     0.000000000000E+000
     0.210828142239E+003     0.286161549133E-005     0.000000000000E+000     0.000000000000E+000     0.000000000000E+000
     0.212828142239E+003     0.273307428518E-005     0.000000000000E+000     0.000000000000E+000     0.000000000000E+000
     0.214828142239E+003     0.261112600920E-005     0.000000000000E+000     0.000000000000E+000     0.000000000000E+000
     0.216828142239E+003     0.249543252618E-005     0.000000000000E+000     0.000000000000E+000     0.000000000000E+000
     0.218828142239E+003     0.238567303957E-005     0.000000000000E+000     0.000000000000E+000     0.000000000000E+000
     0.220828142239E+003     0.228154320435E-005     0.000000000000E+000     0.000000000000E+000     0.000000000000E+000
     0.222828142239E+003     0.218275428348E-005     0.000000000000E+000     0.000000000000E+000     0.000000000000E+000
     0.224828142239E+003     0.208903234764E-005     0.000000000000E+000     0.000000000000E+000     0.000000000000E+000
     0.226828142239E+003     0.200011751589E-005     0.000000000000E+000     0.000000000000E+000     0.000000000000E+000
     0.228828142239E+003     0.191576323537E-005     0.000000000000E+000     0.000000000000E+000     0.000000000000E+000
     0.230828142239E+003     0.183573559782E-005     0.000000000000E+000     0.000000000000E+000     0.000000000000E+000
     0.232828142239E+003     0.175981269121E-005     0.000000000000E+000     0.000000000000E+000     0.000000000000E+000
     0.234828142239E+003     0.168778398458E-005     0.000000000000E+000     0.000000000000E+000     0.000000000000E+000
     0.236828142239E+003     0.161944974441E-005     0.000000000000E+000     0.000000000000E+000     0.000000000000E+000
     0.238828142239E+003     0.155462048090E-005     0.000000000000E+000     0.000000000000E+000     0.000000000000E+000
     0.240828142239E+003     0.149311642270E-005     0.000000000000E+000     0.000000000000E+000     0.000000000000E+000
     0.242828142239E+003     0.143476701851E-005     0.000000000000E+000     0.000000000000E+000     0.000000000000E+000
     0.244828142239E+003     0.137941046424E-005     0.000000000000E+000     0.000000000000E+000     0.000000000000E+000
