 #              _____________________  _______________________             #
 #              ___  __ \__  __ \_  / / /_  /___  ____/_  ___/             #
 #              __  / / /_  /_/ /  / / /_  __/_  __/  _____ \              #
 #              _  /_/ /_  _, _// /_/ / / /_ _  /___  ____/ /              #
 #              /_____/ /_/ |_| \____/  \__/ /_____/  /____/               #
 #                                                                         #
  
 #        time                      c  [M/L^3]                   concetration [M/L^3]       concentration flux [M.L^{-2}.T^{-1}]   in    x              directions   cumulative flux
 #-----------------------------------------------------------------------------------------------

     0.000000000000E+000     0.000000000000E+000     0.000000000000E+000     0.000000000000E+000     0.000000000000E+000
     0.100000000000E+000     0.131840752287E-004     0.751492288036E-005    -0.382338181632E-007     0.382338181632E-008
     0.206000000000E+000     0.268339393124E-004     0.152953454081E-004    -0.778184240060E-007     0.120721347610E-007
     0.318360000000E+000     0.409463411428E-004     0.233394144514E-004    -0.118744389314E-006     0.254142543443E-007
     0.437461600000E+000     0.555154185790E-004     0.316437885901E-004    -0.160994713879E-006     0.445889823588E-007
     0.563709296000E+000     0.705324546212E-004     0.402034991341E-004    -0.204544118401E-006     0.704122060374E-007
     0.697531853760E+000     0.859856347778E-004     0.490118118233E-004    -0.249358340856E-006     0.103781977009E-006
     0.839383764986E+000     0.101859809960E-003     0.580600916773E-004    -0.295393448884E-006     0.145684102297E-006
     0.989746790885E+000     0.118136269964E-003     0.673376738793E-004    -0.342595182895E-006     0.197197750656E-006
     0.114913159834E+001     0.134792533351E-003     0.768317440098E-004    -0.390898346717E-006     0.259501008381E-006
     0.131807949424E+001     0.151802160298E-003     0.865272313699E-004    -0.440226264864E-006     0.333876309550E-006
     0.149716426389E+001     0.169134595706E-003     0.964067195522E-004    -0.490490327546E-006     0.421715656876E-006
     0.168699411973E+001     0.186755050517E-003     0.106450378795E-003    -0.541589646499E-006     0.524525541392E-006
     0.188821376691E+001     0.204624429778E-003     0.116635924974E-003    -0.593410846357E-006     0.643931462531E-006
     0.210150659292E+001     0.222699316374E-003     0.126938610333E-003    -0.645828017483E-006     0.781681945499E-006
     0.232759698850E+001     0.240932019589E-003     0.137331251166E-003    -0.698702856809E-006     0.939651950785E-006
     0.256725280781E+001     0.259270697617E-003     0.147784297642E-003    -0.751885023088E-006     0.111984557202E-005
     0.282128797628E+001     0.277659562730E-003     0.158265950756E-003    -0.805212731916E-006     0.132439792403E-005
     0.309056525485E+001     0.296039177114E-003     0.168742330955E-003    -0.858513613631E-006     0.155557613352E-005
     0.337599917015E+001     0.314346846119E-003     0.179177702288E-003    -0.911605853745E-006     0.181577936156E-005
     0.367855912035E+001     0.332517113978E-003     0.189534754968E-003    -0.964299630537E-006     0.210753780976E-005
     0.399927266758E+001     0.350482364790E-003     0.199774947930E-003    -0.101639885789E-005     0.243351069287E-005
     0.433922902763E+001     0.368173528701E-003     0.209858911359E-003    -0.106770323323E-005     0.279648319766E-005
     0.469958276929E+001     0.385520889829E-003     0.219746907203E-003    -0.111801058050E-005     0.319936249356E-005
     0.508155773545E+001     0.402454988527E-003     0.229399343460E-003    -0.116711946673E-005     0.364517291236E-005
     0.548645119957E+001     0.418907606157E-003     0.238777335509E-003    -0.121483205785E-005     0.413705047260E-005
     0.591563827155E+001     0.434812815848E-003     0.247843305033E-003    -0.126095716596E-005     0.467823698654E-005
     0.637057656784E+001     0.450108077783E-003     0.256561604337E-003    -0.130531342557E-005     0.527207405250E-005
     0.685281116191E+001     0.464735352766E-003     0.264899151077E-003    -0.134773252302E-005     0.592199729865E-005
     0.736397983162E+001     0.478642203347E-003     0.272826055908E-003    -0.138806238971E-005     0.663153130388E-005
     0.790581862152E+001     0.491782848041E-003     0.280316223383E-003    -0.142617025932E-005     0.740428567138E-005
     0.848016773881E+001     0.504119131406E-003     0.287347904902E-003    -0.146194548108E-005     0.824395276796E-005
     0.908897780314E+001     0.515621371472E-003     0.293904181739E-003    -0.149530197727E-005     0.915430766093E-005
     0.973431647133E+001     0.526269046393E-003     0.299973356444E-003    -0.152618023454E-005     0.101392107809E-004
     0.104183754596E+002     0.536051284719E-003     0.305549232290E-003    -0.155454872568E-005     0.112026138094E-004
     0.111434779872E+002     0.544967128328E-003     0.310631263147E-003    -0.158040467215E-005     0.123485692318E-004
     0.119120866664E+002     0.553025544125E-003     0.315224560151E-003    -0.160377407796E-005     0.135812439076E-004
     0.127268118664E+002     0.560245169763E-003     0.319339746765E-003    -0.162471099231E-005     0.149049368958E-004
     0.135904205784E+002     0.566653789780E-003     0.322992660174E-003    -0.164329599036E-005     0.163241016294E-004
     0.145058458131E+002     0.572287551002E-003     0.326203904071E-003    -0.165963389791E-005     0.178433723799E-004
     0.154761965619E+002     0.577189939250E-003     0.328998265373E-003    -0.167385082383E-005     0.194675947802E-004
     0.165047683556E+002     0.581410552361E-003     0.331404014846E-003    -0.168609060185E-005     0.212018600149E-004
     0.175950544569E+002     0.585003716339E-003     0.333452118313E-003    -0.169651077738E-005     0.230515421362E-004
     0.187507577243E+002     0.588027001069E-003     0.335175390609E-003    -0.170527830310E-005     0.250223378430E-004
     0.199758031878E+002     0.590539698534E-003     0.336607628164E-003    -0.171256512575E-005     0.271203079812E-004
     0.212743513791E+002     0.592601329094E-003     0.337782757583E-003    -0.171854385437E-005     0.293519199949E-004
     0.226508124618E+002     0.594270239713E-003     0.338734036636E-003    -0.172338369517E-005     0.317240905819E-004
     0.241098612095E+002     0.595602351898E-003     0.339493340582E-003    -0.172724682050E-005     0.342442278923E-004
     0.256564528821E+002     0.596650106978E-003     0.340090560977E-003    -0.173028531024E-005     0.369202727443E-004
     0.272958400550E+002     0.597461642882E-003     0.340553136443E-003    -0.173263876436E-005     0.397607385099E-004
     0.290335904583E+002     0.598080220994E-003     0.340905725967E-003    -0.173443264088E-005     0.427747495311E-004
     0.308756058858E+002     0.598543905260E-003     0.341170025998E-003    -0.173577732525E-005     0.459720781429E-004
     0.328281422390E+002     0.598885480068E-003     0.341364723639E-003    -0.173676789220E-005     0.493631805894E-004
     0.348281422390E+002     0.599126840287E-003     0.341502298963E-003    -0.173746783683E-005     0.528381162631E-004
     0.368281422390E+002     0.599293340430E-003     0.341597204045E-003    -0.173795068725E-005     0.563140176376E-004
     0.388281422390E+002     0.599408199033E-003     0.341662673449E-003    -0.173828377720E-005     0.597905851920E-004
     0.408281422390E+002     0.599487433191E-003     0.341707836919E-003    -0.173851355625E-005     0.632676123045E-004
     0.428281422390E+002     0.599542092152E-003     0.341738992527E-003    -0.173867206724E-005     0.667449564390E-004
     0.448281422390E+002     0.599579798136E-003     0.341760484938E-003    -0.173878141460E-005     0.702225192682E-004
     0.468281422390E+002     0.599605809265E-003     0.341775311281E-003    -0.173885684687E-005     0.737002329619E-004
     0.488281422390E+002     0.599623752805E-003     0.341785539099E-003    -0.173890888313E-005     0.771780507282E-004
     0.508281422390E+002     0.599636130992E-003     0.341792594665E-003    -0.173894477988E-005     0.806559402879E-004
     0.528281422390E+002     0.599644669971E-003     0.341797461884E-003    -0.173896954292E-005     0.841338793738E-004
     0.548281422390E+002     0.599650560508E-003     0.341800819490E-003    -0.173898662547E-005     0.876118526247E-004
     0.568281422390E+002     0.599654624041E-003     0.341803135703E-003    -0.173899840972E-005     0.910898494441E-004
     0.588281422390E+002     0.599657427232E-003     0.341804733522E-003    -0.173900653897E-005     0.945678625221E-004
     0.608281422390E+002     0.599659360988E-003     0.341805835763E-003    -0.173901214686E-005     0.980458868158E-004
     0.628281422390E+002     0.599660694972E-003     0.341806596134E-003    -0.173901601542E-005     0.101523918847E-003
     0.648281422390E+002     0.599661615208E-003     0.341807120669E-003    -0.173901868410E-005     0.105001956215E-003
     0.668281422390E+002     0.599662250025E-003     0.341807482514E-003    -0.173902052507E-005     0.108479997265E-003
     0.688281422390E+002     0.599662687947E-003     0.341807732130E-003    -0.173902179505E-005     0.111958040855E-003
     0.708281422390E+002     0.599662990044E-003     0.341807904325E-003    -0.173902267113E-005     0.115436086197E-003
     0.728281422390E+002     0.599663198443E-003     0.341808023112E-003    -0.173902327548E-005     0.118914132748E-003
     0.748281422390E+002     0.599663342205E-003     0.341808105057E-003    -0.173902369239E-005     0.122392180133E-003
     0.768281422390E+002     0.599663441378E-003     0.341808161585E-003    -0.173902398000E-005     0.125870228093E-003
     0.788281422390E+002     0.599663509791E-003     0.341808200581E-003    -0.173902417839E-005     0.129348276450E-003
     0.808281422390E+002     0.599663556986E-003     0.341808227482E-003    -0.173902431526E-005     0.132826325080E-003
     0.828281422390E+002     0.599663589542E-003     0.341808246039E-003    -0.173902440967E-005     0.136304373900E-003
     0.848281422390E+002     0.599663612001E-003     0.341808258841E-003    -0.173902447480E-005     0.139782422849E-003
     0.868281422390E+002     0.599663627494E-003     0.341808267672E-003    -0.173902451973E-005     0.143260471889E-003
     0.888281422390E+002     0.599663638182E-003     0.341808273764E-003    -0.173902455073E-005     0.146738520990E-003
     0.908281422390E+002     0.599663645555E-003     0.341808277966E-003    -0.173902457211E-005     0.150216570135E-003
     0.928281422390E+002     0.599663650641E-003     0.341808280865E-003    -0.173902458686E-005     0.153694619308E-003
     0.948281422390E+002     0.599663654150E-003     0.341808282865E-003    -0.173902459703E-005     0.157172668502E-003
     0.968281422390E+002     0.599663656570E-003     0.341808284245E-003    -0.173902460405E-005     0.160650717710E-003
     0.988281422390E+002     0.599663658240E-003     0.341808285197E-003    -0.173902460890E-005     0.164128766928E-003
     0.100828142239E+003     0.599663659391E-003     0.341808285853E-003    -0.173902461224E-005     0.167606816153E-003
     0.102828142239E+003     0.599663660186E-003     0.341808286306E-003    -0.173902461454E-005     0.171084865382E-003
     0.104828142239E+003     0.599663660734E-003     0.341808286618E-003    -0.173902461613E-005     0.174562914614E-003
     0.106828142239E+003     0.599663661112E-003     0.341808286834E-003    -0.173902461723E-005     0.178040963848E-003
     0.108828142239E+003     0.599663661373E-003     0.341808286983E-003    -0.173902461798E-005     0.181519013084E-003
     0.110828142239E+003     0.599663661553E-003     0.341808287085E-003    -0.173902461850E-005     0.184997062321E-003
     0.112828142239E+003     0.599663661677E-003     0.341808287156E-003    -0.173902461886E-005     0.188475111559E-003
     0.114828142239E+003     0.599663661763E-003     0.341808287205E-003    -0.173902461911E-005     0.191953160797E-003
     0.116828142239E+003     0.599663661822E-003     0.341808287238E-003    -0.173902461928E-005     0.195431210036E-003
     0.118828142239E+003     0.599663661863E-003     0.341808287262E-003    -0.173902461940E-005     0.198909259275E-003
     0.120828142239E+003     0.599663661891E-003     0.341808287278E-003    -0.173902461948E-005     0.202387308514E-003
     0.122828142239E+003     0.599663661910E-003     0.341808287289E-003    -0.173902461954E-005     0.205865357753E-003
     0.124828142239E+003     0.599663661923E-003     0.341808287296E-003    -0.173902461958E-005     0.209343406992E-003
     0.126828142239E+003     0.599663661933E-003     0.341808287302E-003    -0.173902461961E-005     0.212821456231E-003
     0.128828142239E+003     0.599663661939E-003     0.341808287305E-003    -0.173902461962E-005     0.216299505470E-003
     0.130828142239E+003     0.599663661943E-003     0.341808287308E-003    -0.173902461964E-005     0.219777554710E-003
     0.132828142239E+003     0.599663661946E-003     0.341808287309E-003    -0.173902461965E-005     0.223255603949E-003
     0.134828142239E+003     0.599663661948E-003     0.341808287311E-003    -0.173902461965E-005     0.226733653188E-003
     0.136828142239E+003     0.599663661950E-003     0.341808287311E-003    -0.173902461966E-005     0.230211702428E-003
     0.138828142239E+003     0.599663661951E-003     0.341808287312E-003    -0.173902461966E-005     0.233689751667E-003
     0.140828142239E+003     0.599663661951E-003     0.341808287312E-003    -0.173902461966E-005     0.237167800906E-003
     0.142828142239E+003     0.599663661952E-003     0.341808287312E-003    -0.173902461966E-005     0.240645850146E-003
     0.144828142239E+003     0.599663661952E-003     0.341808287312E-003    -0.173902461966E-005     0.244123899385E-003
     0.146828142239E+003     0.599663661952E-003     0.341808287313E-003    -0.173902461967E-005     0.247601948624E-003
     0.148828142239E+003     0.599663661952E-003     0.341808287312E-003    -0.173902461967E-005     0.251079997864E-003
     0.150828142239E+003     0.599663661951E-003     0.341808287312E-003    -0.173902461967E-005     0.254558047103E-003
     0.152828142239E+003     0.599663661951E-003     0.341808287312E-003    -0.173902461967E-005     0.258036096342E-003
     0.154828142239E+003     0.599663661951E-003     0.341808287312E-003    -0.173902461967E-005     0.261514145582E-003
     0.156828142239E+003     0.599663661950E-003     0.341808287312E-003    -0.173902461967E-005     0.264992194821E-003
     0.158828142239E+003     0.599663661950E-003     0.341808287311E-003    -0.173902461967E-005     0.268470244060E-003
     0.160828142239E+003     0.599663661949E-003     0.341808287311E-003    -0.173902461967E-005     0.271948293300E-003
     0.162828142239E+003     0.599663661948E-003     0.341808287310E-003    -0.173902461967E-005     0.275426342539E-003
     0.164828142239E+003     0.599663661947E-003     0.341808287310E-003    -0.173902461968E-005     0.278904391778E-003
     0.166828142239E+003     0.599663661946E-003     0.341808287309E-003    -0.173902461968E-005     0.282382441018E-003
     0.168828142239E+003     0.599663661944E-003     0.341808287308E-003    -0.173902461968E-005     0.285860490257E-003
     0.170828142239E+003     0.599663661942E-003     0.341808287307E-003    -0.173902461968E-005     0.289338539496E-003
     0.172828142239E+003     0.599663661940E-003     0.341808287306E-003    -0.173902461969E-005     0.292816588736E-003
     0.174828142239E+003     0.599663661937E-003     0.341808287304E-003    -0.173902461969E-005     0.296294637975E-003
     0.176828142239E+003     0.599663661934E-003     0.341808287303E-003    -0.173902461969E-005     0.299772687214E-003
     0.178828142239E+003     0.599663661931E-003     0.341808287301E-003    -0.173902461970E-005     0.303250736454E-003
     0.180828142239E+003     0.599663661927E-003     0.341808287298E-003    -0.173902461970E-005     0.306728785693E-003
     0.182828142239E+003     0.599663661922E-003     0.341808287295E-003    -0.173902461971E-005     0.310206834933E-003
     0.184828142239E+003     0.599663661916E-003     0.341808287292E-003    -0.173902461971E-005     0.313684884172E-003
     0.186828142239E+003     0.599663661909E-003     0.341808287288E-003    -0.173902461972E-005     0.317162933412E-003
     0.188828142239E+003     0.599663661902E-003     0.341808287284E-003    -0.173902461973E-005     0.320640982651E-003
     0.190828142239E+003     0.599663661892E-003     0.341808287279E-003    -0.173902461973E-005     0.324119031890E-003
     0.192828142239E+003     0.599663661882E-003     0.341808287273E-003    -0.173902461974E-005     0.327597081130E-003
     0.194828142239E+003     0.599663661870E-003     0.341808287266E-003    -0.173902461975E-005     0.331075130369E-003
     0.196828142239E+003     0.599663661856E-003     0.341808287258E-003    -0.173902461976E-005     0.334553179609E-003
     0.198828142239E+003     0.599663661840E-003     0.341808287249E-003    -0.173902461977E-005     0.338031228849E-003
     0.200828142239E+003     0.599663661821E-003     0.341808287238E-003    -0.173902461979E-005     0.341509278088E-003
     0.202828142239E+003     0.599663661799E-003     0.341808287226E-003    -0.173902461980E-005     0.344987327328E-003
     0.204828142239E+003     0.599663661775E-003     0.341808287212E-003    -0.173902461982E-005     0.348465376567E-003
     0.206828142239E+003     0.599663661747E-003     0.341808287196E-003    -0.173902461983E-005     0.351943425807E-003
     0.208828142239E+003     0.599663661714E-003     0.341808287177E-003    -0.173902461985E-005     0.355421475047E-003
     0.210828142239E+003     0.599663661677E-003     0.341808287156E-003    -0.173902461987E-005     0.358899524286E-003
     0.212828142239E+003     0.599663661635E-003     0.341808287132E-003    -0.173902461988E-005     0.362377573526E-003
     0.214828142239E+003     0.599663661587E-003     0.341808287105E-003    -0.173902461990E-005     0.365855622766E-003
     0.216828142239E+003     0.599663661533E-003     0.341808287074E-003    -0.173902461993E-005     0.369333672006E-003
     0.218828142239E+003     0.599663661471E-003     0.341808287038E-003    -0.173902461995E-005     0.372811721246E-003
     0.220828142239E+003     0.599663661400E-003     0.341808286998E-003    -0.173902461997E-005     0.376289770486E-003
     0.222828142239E+003     0.599663661321E-003     0.341808286953E-003    -0.173902461999E-005     0.379767819726E-003
     0.224828142239E+003     0.599663661231E-003     0.341808286901E-003    -0.173902462001E-005     0.383245868966E-003
     0.226828142239E+003     0.599663661129E-003     0.341808286843E-003    -0.173902462004E-005     0.386723918206E-003
     0.228828142239E+003     0.599663661014E-003     0.341808286778E-003    -0.173902462006E-005     0.390201967446E-003
     0.230828142239E+003     0.599663660885E-003     0.341808286704E-003    -0.173902462008E-005     0.393680016686E-003
     0.232828142239E+003     0.599663660739E-003     0.341808286621E-003    -0.173902462009E-005     0.397158065926E-003
     0.234828142239E+003     0.599663660575E-003     0.341808286528E-003    -0.173902462011E-005     0.400636115166E-003
     0.236828142239E+003     0.599663660391E-003     0.341808286423E-003    -0.173902462012E-005     0.404114164407E-003
     0.238828142239E+003     0.599663660185E-003     0.341808286306E-003    -0.173902462013E-005     0.407592213647E-003
     0.240828142239E+003     0.599663659955E-003     0.341808286174E-003    -0.173902462013E-005     0.411070262887E-003
     0.242828142239E+003     0.599663659696E-003     0.341808286027E-003    -0.173902462012E-005     0.414548312127E-003
     0.244828142239E+003     0.599663659408E-003     0.341808285863E-003    -0.173902462011E-005     0.418026361368E-003
