 #              _____________________  _______________________             #
 #              ___  __ \__  __ \_  / / /_  /___  ____/_  ___/             #
 #              __  / / /_  /_/ /  / / /_  __/_  __/  _____ \              #
 #              _  /_/ /_  _, _// /_/ / / /_ _  /___  ____/ /              #
 #              /_____/ /_/ |_| \____/  \__/ /_____/  /____/               #
 #                                                                         #
  
 #        time                      [L]                   runoff elevation [m a.m.s.l]       runoff flux [L3.T-1.L-2]   in    x              directions   cumulative flux
 #-----------------------------------------------------------------------------------------------

   0.0000000000000000          0.0000000000000000          -0.0000000000000000          0.0000000000000000     
   9.1240018157003749E-003     4.4099342109035972E-004     -9.2405564968543007E-008     9.3678726950422813E-010
   1.2658827060775903E-002     6.1184330793496988E-004     -1.5948198514580557E-007     1.5631660997577325E-009
   1.5522035509287080E-002     7.5023171627910403E-004     -2.2402869169243124E-007     2.2758781472718157E-009
   1.7841234352581132E-002     8.6232632703785270E-004     -2.8255132710041289E-007     3.0039811594745683E-009
   1.9719785415649317E-002     9.5312296175243923E-004     -3.3385623871803291E-007     3.7008322618697972E-009
   2.1241411776734546E-002     1.0266682358712545E-003     -3.7788659399456992E-007     4.3397235984507402E-009
   2.2473929129213581E-002     1.0862399079074948E-003     -4.1513326317365284E-007     4.9082335433982658E-009
   2.3472268184721600E-002     1.1344929622568495E-003     -4.4632130606623466E-007     5.4033224224552329E-009
   2.4370773334678818E-002     1.1779207111712684E-003     -4.7515799275110096E-007     5.8776912041554532E-009
   2.5179427969640313E-002     1.2170056851942455E-003     -5.0172486039587066E-007     6.3284935750827084E-009
   2.5907217141105658E-002     1.2521821618149251E-003     -5.2612684719827931E-007     6.7539484886472751E-009
   2.6562227395424468E-002     1.2838409907735366E-003     -5.4848321147396374E-007     7.1531286306885629E-009
   2.7151736624311397E-002     1.3123339368362873E-003     -5.6892088297511546E-007     7.5257776429333763E-009
   2.7682294930309635E-002     1.3379775882927628E-003     -5.8756963058076205E-007     7.8721553627744199E-009
   2.8159797405708047E-002     1.3610568746035903E-003     -6.0455859265843496E-007     8.1929089455719575E-009
   2.8589549633566618E-002     1.3818282322833355E-003     -6.2001383197784414E-007     8.4889670851226341E-009
   2.8976326638639333E-002     1.4005224541951062E-003     -6.3405666097805413E-007     8.7614543477665196E-009
   2.9324425943204776E-002     1.4173472539156995E-003     -6.4680254503568435E-007     9.0116226990088312E-009
   2.9637715317313674E-002     1.4324895736642336E-003     -6.5836043750691467E-007     9.2407975094583899E-009
   2.9951004691422572E-002     1.4476318934127680E-003     -6.7000006814602432E-007     9.4507014114607781E-009
   3.0264294065531470E-002     1.4627742131613022E-003     -6.8172115095105075E-007     9.6642774041590315E-009
   3.0577583439640368E-002     1.4779165329098360E-003     -6.9352340388142946E-007     9.8815509172909182E-009
   3.0890872813749266E-002     1.4930588526583697E-003     -7.0540654876295909E-007     1.0102547293445183E-008
   3.1204162187858164E-002     1.5082011724069039E-003     -7.1737031119598838E-007     1.0327291789244080E-008
   3.1517451561967065E-002     1.5233434921554374E-003     -7.2941442046668642E-007     1.0555809576498094E-008
   3.1830740936075963E-002     1.5384858119039714E-003     -7.4153860946126714E-007     1.0788125743333798E-008
   3.2144030310184861E-002     1.5536281316525051E-003     -7.5374261458303097E-007     1.1024265295295720E-008
   3.2457319684293759E-002     1.5687704514010393E-003     -7.6602617567211655E-007     1.1264253156423070E-008
   3.2770609058402657E-002     1.5839127711495731E-003     -7.7838903592783805E-007     1.1508114170302133E-008
   3.3083898432511555E-002     1.5990550908981072E-003     -7.9083094183351083E-007     1.1755873101095105E-008
   3.3397187806620453E-002     1.6141974106466412E-003     -8.0335164308365174E-007     1.2007554634546137E-008
   3.3710477180729351E-002     1.6293397303951752E-003     -8.1595089251346804E-007     1.2263183378965279E-008
   3.4023766554838249E-002     1.6444820501437093E-003     -8.2862844603053591E-007     1.2522783866191015E-008
   3.4337055928947147E-002     1.6596243698922433E-003     -8.4138406254858057E-007     1.2786380552532064E-008
   3.4650345303056045E-002     1.6747666896407775E-003     -8.5421750392328082E-007     1.3053997819689054E-008
   3.4963634677164943E-002     1.6899090093893117E-003     -8.6712853489000990E-007     1.3325659975656712E-008
   3.5276924051273841E-002     1.7050513291378456E-003     -8.8011692300344534E-007     1.3601391255607112E-008
   3.5590213425382738E-002     1.7201936488863794E-003     -8.9318243857896948E-007     1.3881215822754577E-008
   3.5903502799491636E-002     1.7353359686349131E-003     -9.0632485463579623E-007     1.4165157769202764E-008
   3.6216792173600534E-002     1.7504782883834471E-003     -9.1954394684175573E-007     1.4453241116774445E-008
   3.6530081547709432E-002     1.7656206081319811E-003     -9.3283949345967662E-007     1.4745489817824489E-008
   3.6843370921818330E-002     1.7807629278805154E-003     -9.4621127529530562E-007     1.5041927756036538E-008
   3.7156660295927228E-002     1.7959052476290494E-003     -9.5965907564670583E-007     1.5342578747203820E-008
   3.7469949670036126E-002     1.8110475673775832E-003     -9.7318268025508558E-007     1.5647466539994556E-008
   3.7783239044145024E-002     1.8261898871261173E-003     -9.8678187725699766E-007     1.5956614816702406E-008
   3.8096528418253922E-002     1.8413322068746511E-003     -1.0004564571378632E-006     1.6270047193982335E-008
   3.8409817792362820E-002     1.8564745266231850E-003     -1.0142062126867773E-006     1.6587787223572332E-008
   3.8723107166471718E-002     1.8716168463717194E-003     -1.0280309389525425E-006     1.6909858393001359E-008
   3.9036396540580616E-002     1.8867591661202532E-003     -1.0419304332008920E-006     1.7236284126283882E-008
   3.9349685914689514E-002     1.9019014858687867E-003     -1.0559044948728642E-006     1.7567087784601374E-008
   3.9662975288798412E-002     1.9170438056173209E-003     -1.0699529255442809E-006     1.7902292666971128E-008
   3.9976264662907310E-002     1.9321861253658551E-003     -1.0840755288862943E-006     1.8241922010902688E-008
   4.0289554037016208E-002     1.9473284451143886E-003     -1.0982721106269721E-006     1.8585998993042271E-008
   4.0602843411125106E-002     1.9624707648629226E-003     -1.1125424785138782E-006     1.8934546729805448E-008
   4.0916132785234004E-002     1.9776130846114568E-003     -1.1268864422776177E-006     1.9287588277998408E-008
   4.1229422159342902E-002     1.9927554043599909E-003     -1.1413038135963143E-006     1.9645146635428098E-008
   4.1542711533451800E-002     2.0078977241085251E-003     -1.1557944060609951E-006     2.0007244741501513E-008
   4.1856000907560698E-002     2.0230400438570589E-003     -1.1703580351418386E-006     2.0373905477814419E-008
   4.2169290281669596E-002     2.0381823636055930E-003     -1.1849945181552780E-006     2.0745151668729762E-008
   4.2482579655778493E-002     2.0533246833541268E-003     -1.1997036742319095E-006     2.1121006081946023E-008
   4.2795869029887391E-002     2.0684670031026605E-003     -1.2144853242852018E-006     2.1501491429055777E-008
   4.3109158403996289E-002     2.0836093228511939E-003     -1.2293392909809650E-006     2.1886630366094681E-008
   4.3422447778105187E-002     2.0987516425997285E-003     -1.2442653987075626E-006     2.2276445494081134E-008
   4.3735737152214085E-002     2.1138939623482618E-003     -1.2592634735468397E-006     2.2670959359546820E-008
   4.4049026526322983E-002     2.1290362820967960E-003     -1.2743333432457532E-006     2.3070194455058382E-008
   4.4362315900431881E-002     2.1441786018453297E-003     -1.2894748371886683E-006     2.3474173219730393E-008
   4.4675605274540779E-002     2.1593209215938635E-003     -1.3046877863703132E-006     2.3882918039729872E-008
   4.4988894648649677E-002     2.1744632413423981E-003     -1.3199720233693694E-006     2.4296451248772517E-008
   4.5302184022758575E-002     2.1896055610909318E-003     -1.3353273823226674E-006     2.4714795128610860E-008
   4.5615473396867473E-002     2.2047478808394660E-003     -1.3507536988999931E-006     2.5137971909514518E-008
   4.5928762770976371E-002     2.2198902005880002E-003     -1.3662508102794586E-006     2.5566003770742747E-008
   4.6242052145085269E-002     2.2350325203365344E-003     -1.3818185551234410E-006     2.5998912841009433E-008
   4.6555341519194167E-002     2.2501748400850681E-003     -1.3974567735550659E-006     2.6436721198940740E-008
   4.6868630893303065E-002     2.2653171598336023E-003     -1.4131653071352183E-006     2.6879450873525544E-008
   4.7181920267411963E-002     2.2804594795821360E-003     -1.4289439988400662E-006     2.7327123844558814E-008
   4.7495209641520861E-002     2.2956017993306706E-003     -1.4447926930390846E-006     2.7779762043078138E-008
   4.7808499015629759E-002     2.3107441190792044E-003     -1.4607112354735616E-006     2.8237387351793487E-008
   4.8121788389738657E-002     2.3258864388277381E-003     -1.4766994732355775E-006     2.8700021605510402E-008
   4.8435077763847555E-002     2.3410287585762723E-003     -1.4927572547474412E-006     2.9167686591546746E-008
   4.8748367137956453E-002     2.3561710783248061E-003     -1.5088844297415647E-006     2.9640404050143145E-008
   4.9061656512065351E-002     2.3713133980733402E-003     -1.5250808492407809E-006     3.0118195674867259E-008
   4.9374945886174249E-002     2.3864557178218740E-003     -1.5413463655390709E-006     3.0601083113012023E-008
   4.9688235260283146E-002     2.4015980375704077E-003     -1.5576808321827042E-006     3.1089087965987971E-008
   5.0001524634392044E-002     2.4167403573189415E-003     -1.5740841039517782E-006     3.1582231789709789E-008
   5.0314814008500942E-002     2.4318826770674757E-003     -1.5905560368421388E-006     3.2080536094977194E-008
   5.0628103382609840E-002     2.4470249968160094E-003     -1.6070964880476818E-006     3.2584022347850262E-008
   5.0941392756718738E-002     2.4621673165645436E-003     -1.6237053159430174E-006     3.3092711970019340E-008
   5.1254682130827636E-002     2.4773096363130778E-003     -1.6403823800664923E-006     3.3606626339169638E-008
   5.1567971504936534E-002     2.4924519560616115E-003     -1.6571275411035553E-006     3.4125786789340589E-008
   5.1881260879045432E-002     2.5075942758101461E-003     -1.6739406608704698E-006     3.4650214611280138E-008
   5.2194550253154330E-002     2.5227365955586799E-003     -1.6908216022983373E-006     3.5179931052793991E-008
   5.2507839627263228E-002     2.5378789153072141E-003     -1.7077702294174624E-006     3.5714957319089999E-008
   5.2821129001372126E-002     2.5530212350557478E-003     -1.7247864073420130E-006     3.6255314573117716E-008
   5.3134418375481024E-002     2.5681635548042820E-003     -1.7418700022549910E-006     3.6801023935903251E-008
   5.3447707749589922E-002     2.5833058745528157E-003     -1.7590208813934994E-006     3.7352106486879504E-008
   5.3760997123698820E-002     2.5984481943013499E-003     -1.7762389130342962E-006     3.7908583264211892E-008
   5.4074286497807718E-002     2.6135905140498837E-003     -1.7935239664796298E-006     3.8470475265119607E-008
   5.4387575871916616E-002     2.6287328337984178E-003     -1.8108759120433486E-006     3.9037803446192547E-008
   5.4700865246025514E-002     2.6438751535469520E-003     -1.8282946210372786E-006     3.9610588723703981E-008
   5.5014154620134412E-002     2.6590174732954866E-003     -1.8457799657578590E-006     4.0188851973919004E-008
   5.5327443994243310E-002     2.6741597930440204E-003     -1.8633318194730354E-006     4.0772614033398906E-008
   5.5640733368352208E-002     2.6893021127925541E-003     -1.8809500564093991E-006     4.1361895699301507E-008
   5.5954022742461106E-002     2.7044444325410883E-003     -1.8986345517395692E-006     4.1956717729677527E-008
   5.6267312116570004E-002     2.7195867522896225E-003     -1.9163851815698087E-006     4.2557100843763103E-008
   5.6580601490678901E-002     2.7347290720381567E-003     -1.9342018229278701E-006     4.3163065722268467E-008
   5.6893890864787799E-002     2.7498713917866904E-003     -1.9520843537510715E-006     4.3774633007662914E-008
   5.7207180238896697E-002     2.7650137115352246E-003     -1.9700326528745866E-006     4.4391823304456084E-008
   5.7520469613005595E-002     2.7801560312837579E-003     -1.9880466000199501E-006     4.5014657179475657E-008
   5.7833758987114493E-002     2.7952983510322917E-003     -2.0061260757837727E-006     4.5643155162141495E-008
   5.8147048361223391E-002     2.8104406707808258E-003     -2.0242709616266602E-006     4.6277337744736331E-008
   5.8460337735332289E-002     2.8255829905293596E-003     -2.0424811398623310E-006     4.6917225382673033E-008
   5.8773627109441187E-002     2.8407253102778938E-003     -2.0607564936469306E-006     4.7562838494758531E-008
   5.9086916483550085E-002     2.8558676300264275E-003     -2.0790969069685328E-006     4.8214197463454452E-008
   5.9400205857658983E-002     2.8710099497749613E-003     -2.0975022646368315E-006     4.8871322635134525E-008
   5.9713495231767881E-002     2.8861522695234950E-003     -2.1159724522730108E-006     4.9534234320338809E-008
   6.0026784605876779E-002     2.9012945892720292E-003     -2.1345073562997900E-006     5.0202952794024812E-008
   6.0340073979985677E-002     2.9164369090205625E-003     -2.1531068639316488E-006     5.0877498295815529E-008
   6.0653363354094575E-002     2.9315792287690967E-003     -2.1717708631652184E-006     5.1557891030244502E-008
   6.0966652728203473E-002     2.9467215485176304E-003     -2.1904992427698369E-006     5.2244151166997879E-008
   6.1279942102312371E-002     2.9618638682661650E-003     -2.2092918922782677E-006     5.2936298841153600E-008
   6.1593231476421269E-002     2.9770061880146992E-003     -2.2281487019775784E-006     5.3634354153417714E-008
   6.1906520850530167E-002     2.9921485077632330E-003     -2.2470695629001711E-006     5.4338337170357865E-008
   6.2219810224639065E-002     3.0072908275117667E-003     -2.2660543668149703E-006     5.5048267924634063E-008
   6.2533099598747963E-002     3.0224331472603013E-003     -2.2851030062187531E-006     5.5764166415226697E-008
   6.2846388972856868E-002     3.0375754670088359E-003     -2.3042153743276209E-006     5.6486052607661897E-008
   6.3159678346965772E-002     3.0527177867573701E-003     -2.3233913650686266E-006     5.7213946434234267E-008
   6.3472967721074677E-002     3.0678601065059039E-003     -2.3426308730715259E-006     5.7947867794227032E-008
   6.3786257095183582E-002     3.0830024262544380E-003     -2.3619337936606779E-006     5.8687836554129645E-008
   6.4099546469292487E-002     3.0981447460029718E-003     -2.3813000228470620E-006     5.9433872547852910E-008
   6.4412835843401392E-002     3.1132870657515055E-003     -2.4007294573204450E-006     6.0185995576941631E-008
   6.4726125217510297E-002     3.1284293855000402E-003     -2.4202219944416566E-006     6.0944225410784842E-008
   6.5039414591619202E-002     3.1435717052485735E-003     -2.4397775322350010E-006     6.1708581786823704E-008
   6.5352703965728107E-002     3.1587140249971072E-003     -2.4593959693807902E-006     6.2479084410756955E-008
   6.5665993339837012E-002     3.1738563447456414E-003     -2.4790772052079922E-006     6.3255752956744209E-008
   6.5979282713945916E-002     3.1889986644941751E-003     -2.4988211396869952E-006     6.4038607067606834E-008
   6.6292572088054821E-002     3.2041409842427093E-003     -2.5186276734224973E-006     6.4827666355026722E-008
   6.6605861462163726E-002     3.2192833039912426E-003     -2.5384967076464928E-006     6.5622950399742795E-008
   6.6919150836272631E-002     3.2344256237397772E-003     -2.5584281442113825E-006     6.6424478751745367E-008
   6.7232440210381536E-002     3.2495679434883106E-003     -2.5784218855831812E-006     6.7232270930468409E-008
   6.7545729584490441E-002     3.2647102632368452E-003     -2.5984778348348408E-006     6.8046346424979667E-008
   6.7859018958599346E-002     3.2798525829853789E-003     -2.6185958956396651E-006     6.8866724694168748E-008
   6.8172308332708251E-002     3.2949949027339135E-003     -2.6387759722648381E-006     6.9693425166933194E-008
   6.8485597706817156E-002     3.3101372224824477E-003     -2.6590179695650435E-006     7.0526467242362549E-008
   6.8798887080926061E-002     3.3252795422309810E-003     -2.6793217929761819E-006     7.1365870289920396E-008
   6.9112176455034965E-002     3.3404218619795152E-003     -2.6996873485091930E-006     7.2211653649624557E-008
   6.9425465829143870E-002     3.3555641817280494E-003     -2.7201145427439546E-006     7.3063836632225325E-008
   6.9738755203252775E-002     3.3707065014765836E-003     -2.7406032828232901E-006     7.3922438519381829E-008
   7.0052044577361680E-002     3.3858488212251178E-003     -2.7611534764470544E-006     7.4787478563836541E-008
   7.0365333951470585E-002     3.4009911409736519E-003     -2.7817650318663149E-006     7.5658975989587962E-008
   7.0678623325579490E-002     3.4161334607221852E-003     -2.8024378578776151E-006     7.6536949992061524E-008
   7.0991912699688395E-002     3.4312757804707194E-003     -2.8231718638173267E-006     7.7421419738278708E-008
   7.1305202073797300E-002     3.4464181002192532E-003     -2.8439669595560796E-006     7.8312404367024422E-008
   7.1618491447906205E-002     3.4615604199677878E-003     -2.8648230554932785E-006     7.9209922989012650E-008
   7.1931780822015109E-002     3.4767027397163220E-003     -2.8857400625516971E-006     8.0113994687050450E-008
   7.2245070196124014E-002     3.4918450594648544E-003     -2.9067178921721490E-006     8.1024638516200205E-008
   7.2558359570232919E-002     3.5069873792133886E-003     -2.9277564563082482E-006     8.1941873503940302E-008
   7.2871648944341824E-002     3.5221296989619219E-003     -2.9488556674212219E-006     8.2865718650324175E-008
   7.3184938318450729E-002     3.5372720187104561E-003     -2.9700154384748198E-006     8.3796192928137715E-008
   7.3498227692559634E-002     3.5524143384589898E-003     -2.9912356829302835E-006     8.4733315283055144E-008
   7.3811517066668539E-002     3.5675566582075240E-003     -3.0125163147413932E-006     8.5677104633793316E-008
   7.4124806440777444E-002     3.5826989779560573E-003     -3.0338572483495822E-006     8.6627579872264505E-008
   7.4438095814886349E-002     3.5978412977045906E-003     -3.0552583986791204E-006     8.7584759863727648E-008
   7.4751385188995254E-002     3.6129836174531244E-003     -3.0767196811323695E-006     8.8548663446938142E-008
   7.5064674563104158E-002     3.6281259372016577E-003     -3.0982410115850931E-006     8.9519309434296164E-008
   7.5377963937213063E-002     3.6432682569501914E-003     -3.1198223063818492E-006     9.0496716611993515E-008
   7.5691253311321968E-002     3.6584105766987252E-003     -3.1414634823314315E-006     9.1480903740159097E-008
   7.6004542685430873E-002     3.6735528964472598E-003     -3.1631644567023820E-006     9.2471889553002907E-008
   7.6317832059539778E-002     3.6886952161957936E-003     -3.1849251472185608E-006     9.3469692758958697E-008
   7.6631121433648683E-002     3.7038375359443282E-003     -3.2067454720547822E-006     9.4474332040825283E-008
   7.6944410807757588E-002     3.7189798556928623E-003     -3.2286253498325049E-006     9.5485826055906427E-008
   7.7257700181866493E-002     3.7341221754413970E-003     -3.2505646996155823E-006     9.6504193436149481E-008
