 #              _____________________  _______________________             #
 #              ___  __ \__  __ \_  / / /_  /___  ____/_  ___/             #
 #              __  / / /_  /_/ /  / / /_  __/_  __/  _____ \              #
 #              _  /_/ /_  _, _// /_/ / / /_ _  /___  ____/ /              #
 #              /_____/ /_/ |_| \____/  \__/ /_____/  /____/               #
 #                                                                         #
  
 #        time                      [L]                   runoff elevation [m a.m.s.l]       runoff flux [L3.T-1.L-2]   in    x              directions   cumulative flux
 #-----------------------------------------------------------------------------------------------

   0.0000000000000000          0.0000000000000000          -0.0000000000000000          0.0000000000000000     
   1.0000000000000000          0.0000000000000000          -0.0000000000000000          0.0000000000000000     
   2.0060000000000002          0.0000000000000000          -0.0000000000000000          0.0000000000000000     
   3.0180360000000004          0.0000000000000000          -0.0000000000000000          0.0000000000000000     
   4.0361442160000003          0.0000000000000000          -0.0000000000000000          0.0000000000000000     
   5.0603610812960005          0.0000000000000000          -0.0000000000000000          0.0000000000000000     
   6.0907232477837763          0.0000000000000000          -0.0000000000000000          0.0000000000000000     
   7.1272675872704792          0.0000000000000000          -0.0000000000000000          0.0000000000000000     
   8.1700311927941023          0.0000000000000000          -0.0000000000000000          0.0000000000000000     
   9.2190513799508675          0.0000000000000000          -0.0000000000000000          0.0000000000000000     
   10.274365688230573          0.0000000000000000          -0.0000000000000000          0.0000000000000000     
   11.336011882359955          0.0000000000000000          -0.0000000000000000          0.0000000000000000     
   12.404027953654115          0.0000000000000000          -0.0000000000000000          0.0000000000000000     
   13.478452121376039          3.1585321120817976E-005     -1.6512070609175582E-012     1.7635156780943464E-012
   14.559322834104295          1.3818082627918965E-003     -8.9688966214336706E-010     9.6540344446487943E-010
   15.646678771108920          3.9234140254229147E-003     -5.1062210287434854E-009     6.4845682071508584E-009
   16.740558843735574          7.5510679560039200E-003     -1.5205708965897250E-008     2.3018586127583699E-008
   17.841002196797987          1.2176467049744073E-002     -3.3717979258199380E-008     5.9902011727366822E-008
   18.948048209978776          1.7724768290372551E-002     -6.3041565141047992E-008     1.2927568305348422E-007
   20.061736499238648          2.4131924925124299E-002     -1.0543366870199513E-007     2.4599560564505190E-007
   21.182106918234080          3.1342663787549803E-002     -1.6301186497859674E-007     4.2754001068212660E-007
   22.309199559743483          3.9308924775656777E-002     -2.3776320726078227E-007     6.9392287482258695E-007
   23.443054757101944          4.7988639730140642E-002     -3.3155591150825506E-007     1.0676171029324843E-006
   24.583713085644554          5.7344764706564487E-002     -4.4615147647238918E-007     1.5734882733398537E-006
   25.731215364158420          6.7344504250819434E-002     -5.8321628628713875E-007     2.2387387876349707E-006
   26.885602656343369          7.7958683117705166E-002     -7.4433230213373801E-007     3.0928618003049073E-006
   28.046916272281429          8.9161232595284648E-002     -9.3100671955180436E-007     4.1676041262943080E-006
   29.215197769915118         0.10092876690086416          -1.1446805974732058E-006     5.4969372900400556E-006
   30.390488956534607         0.11324023107956534          -1.3867365241671583E-006     7.1170359133173984E-006
   31.572831890273815         0.12607660605438320          -1.6585054057919024E-006     9.0662626997054042E-006
   32.762268881615455         0.13942065790566294          -1.9612724251560154E-006     1.1385159292726177E-005
   33.958842494905149         0.15325670522065737          -2.2962818008148491E-006     1.4116441809159961E-005
   35.162595549874581         0.16757028567282925          -2.6647372492070877E-006     1.7304996087911320E-005
   36.373571123173825         0.18234720646834135          -3.0677825067859004E-006     2.0997848652436627E-005
   37.591812549912866         0.19757031759257077          -3.5064060420569605E-006     2.5244020719436499E-005
   38.817363425212342         0.21321027771491666          -3.9811291734843391E-006     3.0093997203774489E-005
   40.050267605763615         0.22920519089357599          -4.4912454588980131E-006     3.5598247007111752E-005
   41.290569211398200         0.24542762256163142          -5.0334424804352630E-006     4.1803999283804764E-005
   42.538312626666588         0.26164958522537241          -5.6000614649169326E-006     4.8749764510393580E-005
   43.793542502426590         0.27753066721168568          -6.1779493344550339E-006     5.6458260112321575E-005
   45.056303757441150         0.29265453172520683          -6.7491870606031296E-006     6.4930041347883440E-005
   46.326641579985797         0.30661354785519190          -7.2942102400527061E-006     7.4140887424952443E-005
   47.604601429465710         0.31910619910364241          -7.7962324215908484E-006     8.4044736343448140E-005
   48.890229038042506         0.32999979567101151          -8.2448386499513266E-006     9.4581309103526122E-005
   50.183570412270761         0.33933389385714291          -8.6371695264793350E-006     1.0568549270672611E-004
   51.484671834744383         0.34727520885512297          -8.9766786407503140E-006     1.1729540259595955E-004
   52.793579865752847         0.35405409365677148          -9.2706192133994691E-006     1.2935741844172490E-004
   54.110341344947365         0.35990916572608861          -9.5275423414316641E-006     1.4182809512819800E-004
   55.435003393017048         0.36505231794019288          -9.7555380393996823E-006     1.5467381182729631E-004
   56.767613413375152         0.36965386873836303          -9.9613485339450859E-006     1.6786923217780795E-004
   58.108219093855404         0.37384169946073154          -1.0150145781976825E-005     1.8139541815496578E-004
   59.456868408418536         0.37770759884969429          -1.0325685972719222E-005     1.9523809142484841E-004
   60.813609618869044         0.38131583880429182          -1.0490611026345045E-005     2.0938624679487709E-004
   62.178491276582257         0.38471119395745529          -1.0646758783743170E-005     2.2383114319450740E-004
   63.551562224241749         0.38792528580160018          -1.0795419517666133E-005     2.3856561328148914E-004
   64.932871597587194         0.39098111259776008          -1.0937523679296078E-005     2.5358360928486837E-004
   66.322468827172713         0.39389606650968911          -1.1073768729665278E-005     2.6887990982941474E-004
   67.720403640135743         0.39668385138387585          -1.1204700298441140E-005     2.8444993032246461E-004
   69.126726061976555         0.39935566985158311          -1.1330762430495186E-005     3.0028959758146752E-004
   70.541486418348413         0.40192095381490300          -1.1452328318026991E-005     3.1639526367739136E-004
   71.964735336858510         0.40438782085334068          -1.1569719275299608E-005     3.3276364384243658E-004
   73.396523748879659         0.40676336935527779          -1.1683216811069577E-005     3.4939176953351027E-004
   74.836902891372944         0.40905387859999032          -1.1793070667125740E-005     3.6627695145684746E-004
   76.285924308721178         0.41126495149998543          -1.1899504457120589E-005     3.8341674948288973E-004
   77.743639854573502         0.41340162128168156          -1.2002719822892298E-005     4.0080894757269094E-004
   79.210101693700949         0.41546843427948366          -1.2102899627303107E-005     4.1845153250930100E-004
   80.685362303863158         0.41746951606701782          -1.2200210486760590E-005     4.3634267561745780E-004
   82.169474477686336         0.41940862544163954          -1.2294804829628374E-005     4.5448071689224061E-004
   83.662491324552448         0.42128919924868830          -1.2386822601585313E-005     4.7286415111024148E-004
   85.164466272499766         0.42311439011528373          -1.2476392700553354E-005     4.9149161560028509E-004
   86.675453070134765         0.42488709857209944          -1.2563634199313482E-005     5.1036187942282805E-004
   88.195505788555579         0.42661000063482973          -1.2648657397184991E-005     5.2947383375778279E-004
   89.724678823286908         0.42828557162882502          -1.2731564730332509E-005     5.4882648333587521E-004
   91.263026896226634         0.42991610683935094          -1.2812451562127519E-005     5.6841893877348192E-004
   92.810605057603993         0.43150373943789022          -1.2891406869823876E-005     5.8825040968915740E-004
   94.367468687949611         0.43305045605584563          -1.2968513840961475E-005     6.0832019849494940E-004
   95.933673500077305         0.43455811033350239          -1.3043850391624567E-005     6.2862769476933927E-004
   97.509275541077770         0.43602843474644326          -1.3117489618134834E-005     6.4917237013229715E-004
   99.094331194324241         0.43746305098885679          -1.3189500193244522E-005     6.6995377355654926E-004
   100.68889718149019         0.43886347916416080          -1.3259946716969164E-005     6.9097152706202821E-004
   102.29303056457913         0.44023114599556462          -1.3328890030741924E-005     7.1222532175172458E-004
   103.90678874796660         0.44156739222564734          -1.3396387501738222E-005     7.3371491415605836E-004
   105.53022948045439         0.44287347933063947          -1.3462493282314617E-005     7.5544012285919246E-004
   107.16341085733713         0.44415059563777592          -1.3527258547839706E-005     7.7740082538464922E-004
   108.80639132248115         0.44539986190654413          -1.3590731714969774E-005     7.9959695531974732E-004
   110.45922967041604         0.44662233641778026          -1.3652958641699467E-005     8.2202849965947887E-004
   112.12198504843853         0.44781901960668530          -1.3713982810226181E-005     8.4469549635114054E-004
   113.79471695872917         0.44899085827394342          -1.3773845493664498E-005     8.6759803202178217E-004
   115.47748526048154         0.45013874941002169          -1.3832585907776191E-005     8.9073623987155593E-004
   117.17035017204444         0.45126354366892296          -1.3890241349018547E-005     9.1411029771737450E-004
   118.87337227307670         0.45236604852770596          -1.3946847320285357E-005     9.3772042617281054E-004
   120.58661250671516         0.45344703116653823          -1.4002437645698181E-005     9.6156688695176080E-004
   122.31013218175545         0.45450722110116631          -1.4057044575713122E-005     9.8564998128492171E-004
   124.04399297484598         0.45554731259600612          -1.4110698883667607E-005     1.0099700484394918E-003
   125.78825693269505         0.45656796688219653          -1.4163429954734482E-005     1.0345274643336899E-003
   127.54298647429123         0.45756981420133575          -1.4215265868099824E-005     1.0593226402386587E-003
   129.30824439313696         0.45855345569248207          -1.4266233473049171E-005     1.0843560215611262E-003
   131.08409385949579         0.45951946513744546          -1.4316358459540948E-005     1.1096280867008651E-003
   132.87059842265276         0.46046839057734834          -1.4365665423762396E-005     1.1351393459775429E-003
   134.66782201318867         0.46140075581182688          -1.4414177929099469E-005     1.1608903406220357E-003
   136.47582894526781         0.46231706179096071          -1.4461918562902813E-005     1.1868816418276939E-003
   138.29468391893943         0.46321778790897572          -1.4508908989392675E-005     1.2131138498574212E-003
   140.12445202245306         0.46410339320786598          -1.4555169999012221E-005     1.2395875932027605E-003
   141.96519873458777         0.46497431749832391          -1.4600721554511169E-005     1.2663035277914890E-003
   143.81698992699529         0.46583098240468079          -1.4645582834016311E-005     1.2932623362405013E-003
   145.67989186655726         0.46667379233994899          -1.4689772271322989E-005     1.3204647271510095E-003
   147.55397121775661         0.46750313541650568          -1.4733307593621128E-005     1.3479114344433294E-003
   149.43929504506315         0.46831938429745829          -1.4776205856850818E-005     1.3756032167287244E-003
   151.33593081533354         0.46912289699328041          -1.4818483478865388E-005     1.4035408567159777E-003
   153.24394640022555         0.46991401760789819          -1.4860156270564558E-005     1.4317251606505380E-003
   155.16341007862690         0.47069307703804220          -1.4901239465146412E-005     1.4601569577842451E-003
   157.09439053909867         0.47146039362934122          -1.4941747745614013E-005     1.4888370998737866E-003
   159.03695688233327         0.47221627379234332          -1.4981695270661420E-005     1.5177664607061759E-003
   160.99117862362726         0.47296101258136797          -1.5021095699053149E-005     1.5469459356496624E-003
   162.95712569536903         0.47369489423885880          -1.5059962212601977E-005     1.5763764412285953E-003
   164.93486844954126         0.47441819270767599          -1.5098307537841354E-005     1.6060589147208711E-003
   166.92447766023849         0.47513117211357564          -1.5136143966481193E-005     1.6359943137766867E-003
   168.92447766023849         0.47583359704072720          -1.5173457323198852E-005     1.6661835642250446E-003
   170.92447766023849         0.47652248993373664          -1.5210087532409543E-005     1.6966037392898638E-003
   172.92447766023849         0.47719826271070270          -1.5246054429163838E-005     1.7270958481481915E-003
   174.92447766023849         0.47786130712772412          -1.5281376897984215E-005     1.7576586019441599E-003
   176.92447766023849         0.47851199521991111          -1.5316072887364669E-005     1.7882907477188893E-003
   178.92447766023849         0.47915067979215892          -1.5350159427467488E-005     1.8189910665738242E-003
   180.92447766023849         0.47977769545379456          -1.5383652677409397E-005     1.8497583719286430E-003
   182.92447766023849         0.48039336057904353          -1.5416568022711406E-005     1.8805915079740658E-003
   184.92447766023849         0.48099798013247108          -1.5448920219909616E-005     1.9114893484138851E-003
   186.92447766023849         0.48159184880933248          -1.5480723559074277E-005     1.9424507955320338E-003
   188.92447766023849         0.48217525373935893          -1.5511992003978810E-005     1.9734747795399914E-003
   190.92447766023849         0.48274847619452549          -1.5542739279706345E-005     2.0045602580994041E-003
   192.92447766023849         0.48331179216044517          -1.5572978899814326E-005     2.0357062158990326E-003
   194.92447766023849         0.48386547201496299          -1.5602724145789218E-005     2.0669116641906112E-003
   196.92447766023849         0.48440977973991284          -1.5631988021435994E-005     2.0981756402334833E-003
   198.92447766023849         0.48494497206498255          -1.5660783203546084E-005     2.1294972066405755E-003
   200.92447766023849         0.48547129779868631          -1.5689122002566719E-005     2.1608754506457087E-003
   202.92447766023849         0.48598899744364243          -1.5717016338567952E-005     2.1923094833228448E-003
   204.92447766023849         0.48649830308224157          -1.5744477731835455E-005     2.2237984387865157E-003
   206.92447766023849         0.48699943846683508          -1.5771517304603452E-005     2.2553414733957225E-003
   208.92447766023849         0.48749261924042825          -1.5798145789978285E-005     2.2869377649756789E-003
   210.92447766023849         0.48797805322772125          -1.5824373544827723E-005     2.3185865120653342E-003
   212.92447766023849         0.48845594075578985          -1.5850210564444057E-005     2.3502869331942225E-003
   214.92447766023849         0.48892647498038055          -1.5875666497680041E-005     2.3820382661895825E-003
   216.92447766023849         0.48938984220527676          -1.5900750661871655E-005     2.4138397675133260E-003
   218.92447766023849         0.48984622218902990          -1.5925472057229407E-005     2.4456907116277848E-003
   220.92447766023849         0.49029578843698474          -1.5949839380575726E-005     2.4775903903889365E-003
   222.92447766023849         0.49073870847827822          -1.5973861038401075E-005     2.5095381124657385E-003
   224.92447766023849         0.49117514412824714          -1.5997545159252931E-005     2.5415332027842442E-003
   226.92447766023849         0.49160525173695768          -1.6020899605487436E-005     2.5735750019952189E-003
   228.92447766023849         0.49202918242465704          -1.6043931984418969E-005     2.6056628659640569E-003
   230.92447766023849         0.49244708230492340          -1.6066649658902183E-005     2.6377961652818611E-003
   232.92447766023849         0.49285909269626432          -1.6089059757380228E-005     2.6699742847966215E-003
   234.92447766023849         0.49326535032286090          -1.6111169183430641E-005     2.7021966231634826E-003
   236.92447766023849         0.49366598750511548          -1.6132984624838583E-005     2.7344625924131598E-003
   238.92447766023849         0.49406113234060511          -1.6154512562224684E-005     2.7667716175376091E-003
   240.92447766023849         0.49445090887601201          -1.6175759277253399E-005     2.7991231360921160E-003
   242.92447766023849         0.49483543727055929          -1.6196730860445920E-005     2.8315165978130079E-003
   244.92447766023849         0.49521483395144339          -1.6217433218619900E-005     2.8639514642502476E-003
   246.92447766023849         0.49558921176172499          -1.6237872081977091E-005     2.8964272084142017E-003
   248.92447766023849         0.49595868010110611          -1.6258053010858397E-005     2.9289433144359185E-003
   250.92447766023849         0.49632334505999859          -1.6277981402184861E-005     2.9614992772402883E-003
   252.92447766023849         0.49668330954725365          -1.6297662495601428E-005     2.9940946022314913E-003
   254.92447766023849         0.49703867341190933          -1.6317101379339954E-005     3.0267288049901711E-003
   256.92447766023849         0.49738953355928434          -1.6336302995816446E-005     3.0594014109818039E-003
   258.92447766023849         0.49773598406172131          -1.6355272146976479E-005     3.0921119552757568E-003
   260.92447766023849         0.49807811626427673          -1.6374013499402452E-005     3.1248599822745618E-003
   262.92447766023849         0.49841601888562181          -1.6392531589194947E-005     3.1576450454529519E-003
   264.92447766023849         0.49874977811441312          -1.6410830826639993E-005     3.1904667071062319E-003
   266.92447766023849         0.49907947770136984          -1.6428915500673297E-005     3.2233245381075785E-003
   268.92447766023849         0.49940519904728298          -1.6446789783151813E-005     3.2562181176738823E-003
   270.92447766023849         0.49972702128716717          -1.6464457732942424E-005     3.2891470331397670E-003
   272.92447766023849         0.50004502137075468          -1.6481923299836980E-005     3.3221108797394411E-003
   274.92447766023849         0.50035927413951753          -1.6499190328302356E-005     3.3551092603960457E-003
   276.92447766023849         0.50066985240039241          -1.6516262561073620E-005     3.3881417855181929E-003
