 #              _____________________  _______________________             #
 #              ___  __ \__  __ \_  / / /_  /___  ____/_  ___/             #
 #              __  / / /_  /_/ /  / / /_  __/_  __/  _____ \              #
 #              _  /_/ /_  _, _// /_/ / / /_ _  /___  ____/ /              #
 #              /_____/ /_/ |_| \____/  \__/ /_____/  /____/               #
 #                                                                         #
  
 #        time                      c  [M/M]                   concetration [M/M]       zero flux   in    x              directions   cumulative flux
 #-----------------------------------------------------------------------------------------------

     0.000000000000E+000     0.642928000000E-003     0.000000000000E+000     0.000000000000E+000     0.000000000000E+000
     0.100000000000E+000     0.609535475470E-003     0.000000000000E+000     0.000000000000E+000     0.000000000000E+000
     0.206000000000E+000     0.576082058645E-003     0.000000000000E+000     0.000000000000E+000     0.000000000000E+000
     0.318360000000E+000     0.542677639494E-003     0.000000000000E+000     0.000000000000E+000     0.000000000000E+000
     0.437461600000E+000     0.509437792048E-003     0.000000000000E+000     0.000000000000E+000     0.000000000000E+000
     0.563709296000E+000     0.476482818118E-003     0.000000000000E+000     0.000000000000E+000     0.000000000000E+000
     0.697531853760E+000     0.443936599029E-003     0.000000000000E+000     0.000000000000E+000     0.000000000000E+000
     0.839383764986E+000     0.411925257143E-003     0.000000000000E+000     0.000000000000E+000     0.000000000000E+000
     0.989746790885E+000     0.380575635429E-003     0.000000000000E+000     0.000000000000E+000     0.000000000000E+000
     0.114913159834E+001     0.350013610781E-003     0.000000000000E+000     0.000000000000E+000     0.000000000000E+000
     0.131807949424E+001     0.320362264989E-003     0.000000000000E+000     0.000000000000E+000     0.000000000000E+000
     0.149716426389E+001     0.291739945998E-003     0.000000000000E+000     0.000000000000E+000     0.000000000000E+000
     0.168699411973E+001     0.264258261000E-003     0.000000000000E+000     0.000000000000E+000     0.000000000000E+000
     0.188821376691E+001     0.238020051538E-003     0.000000000000E+000     0.000000000000E+000     0.000000000000E+000
     0.210150659292E+001     0.213117408586E-003     0.000000000000E+000     0.000000000000E+000     0.000000000000E+000
     0.232759698850E+001     0.189629791989E-003     0.000000000000E+000     0.000000000000E+000     0.000000000000E+000
     0.256725280781E+001     0.167622322904E-003     0.000000000000E+000     0.000000000000E+000     0.000000000000E+000
     0.282128797628E+001     0.147144319463E-003     0.000000000000E+000     0.000000000000E+000     0.000000000000E+000
     0.309056525485E+001     0.128228144052E-003     0.000000000000E+000     0.000000000000E+000     0.000000000000E+000
     0.337599917015E+001     0.110888425001E-003     0.000000000000E+000     0.000000000000E+000     0.000000000000E+000
     0.367855912035E+001     0.951217056930E-004     0.000000000000E+000     0.000000000000E+000     0.000000000000E+000
     0.399927266758E+001     0.809065601967E-004     0.000000000000E+000     0.000000000000E+000     0.000000000000E+000
     0.433922902763E+001     0.682041967267E-004     0.000000000000E+000     0.000000000000E+000     0.000000000000E+000
     0.469958276929E+001     0.569595492146E-004     0.000000000000E+000     0.000000000000E+000     0.000000000000E+000
     0.508155773545E+001     0.471028340624E-004     0.000000000000E+000     0.000000000000E+000     0.000000000000E+000
     0.548645119957E+001     0.385515251240E-004     0.000000000000E+000     0.000000000000E+000     0.000000000000E+000
     0.591563827155E+001     0.312126767770E-004     0.000000000000E+000     0.000000000000E+000     0.000000000000E+000
     0.637057656784E+001     0.249855044337E-004     0.000000000000E+000     0.000000000000E+000     0.000000000000E+000
     0.685281116191E+001     0.197641158076E-004     0.000000000000E+000     0.000000000000E+000     0.000000000000E+000
     0.736397983162E+001     0.154402763286E-004     0.000000000000E+000     0.000000000000E+000     0.000000000000E+000
     0.790581862152E+001     0.119060895109E-004     0.000000000000E+000     0.000000000000E+000     0.000000000000E+000
     0.848016773881E+001     0.905647847591E-005     0.000000000000E+000     0.000000000000E+000     0.000000000000E+000
     0.908897780314E+001     0.679136813605E-005     0.000000000000E+000     0.000000000000E+000     0.000000000000E+000
     0.973431647133E+001     0.501748791812E-005     0.000000000000E+000     0.000000000000E+000     0.000000000000E+000
     0.104183754596E+002     0.364974072087E-005     0.000000000000E+000     0.000000000000E+000     0.000000000000E+000
     0.111434779872E+002     0.261211286219E-005     0.000000000000E+000     0.000000000000E+000     0.000000000000E+000
     0.119120866664E+002     0.183812946116E-005     0.000000000000E+000     0.000000000000E+000     0.000000000000E+000
     0.127268118664E+002     0.127088734242E-005     0.000000000000E+000     0.000000000000E+000     0.000000000000E+000
     0.135904205784E+002     0.862720705677E-006     0.000000000000E+000     0.000000000000E+000     0.000000000000E+000
     0.145058458131E+002     0.574571588266E-006     0.000000000000E+000     0.000000000000E+000     0.000000000000E+000
     0.154761965619E+002     0.375146464611E-006     0.000000000000E+000     0.000000000000E+000     0.000000000000E+000
     0.164761965619E+002     0.242368414121E-006     0.000000000000E+000     0.000000000000E+000     0.000000000000E+000
     0.174761965619E+002     0.156585370529E-006     0.000000000000E+000     0.000000000000E+000     0.000000000000E+000
     0.184761965619E+002     0.101164082591E-006     0.000000000000E+000     0.000000000000E+000     0.000000000000E+000
     0.194761965619E+002     0.653584148502E-007     0.000000000000E+000     0.000000000000E+000     0.000000000000E+000
     0.204761965619E+002     0.422256821030E-007     0.000000000000E+000     0.000000000000E+000     0.000000000000E+000
     0.214761965619E+002     0.272804692884E-007     0.000000000000E+000     0.000000000000E+000     0.000000000000E+000
     0.224761965619E+002     0.176249137381E-007     0.000000000000E+000     0.000000000000E+000     0.000000000000E+000
     0.234761965619E+002     0.113868123378E-007     0.000000000000E+000     0.000000000000E+000     0.000000000000E+000
     0.244761965619E+002     0.735660310988E-008     0.000000000000E+000     0.000000000000E+000     0.000000000000E+000
     0.254761965619E+002     0.475283228621E-008     0.000000000000E+000     0.000000000000E+000     0.000000000000E+000
     0.264761965619E+002     0.307063115999E-008     0.000000000000E+000     0.000000000000E+000     0.000000000000E+000
     0.274761965619E+002     0.198382251948E-008     0.000000000000E+000     0.000000000000E+000     0.000000000000E+000
     0.284761965619E+002     0.128167519436E-008     0.000000000000E+000     0.000000000000E+000     0.000000000000E+000
     0.294761965619E+002     0.828043480559E-009     0.000000000000E+000     0.000000000000E+000     0.000000000000E+000
     0.304761965619E+002     0.534968616630E-009     0.000000000000E+000     0.000000000000E+000     0.000000000000E+000
     0.314761965619E+002     0.345623662885E-009     0.000000000000E+000     0.000000000000E+000     0.000000000000E+000
     0.324761965619E+002     0.223294811383E-009     0.000000000000E+000     0.000000000000E+000     0.000000000000E+000
     0.334761965619E+002     0.144262613197E-009     0.000000000000E+000     0.000000000000E+000     0.000000000000E+000
     0.344761965619E+002     0.932027996418E-010     0.000000000000E+000     0.000000000000E+000     0.000000000000E+000
     0.354761965619E+002     0.602149210290E-010     0.000000000000E+000     0.000000000000E+000     0.000000000000E+000
     0.364761965619E+002     0.389026588091E-010     0.000000000000E+000     0.000000000000E+000     0.000000000000E+000
     0.374761965619E+002     0.251335854396E-010     0.000000000000E+000     0.000000000000E+000     0.000000000000E+000
     0.384761965619E+002     0.162378905809E-010     0.000000000000E+000     0.000000000000E+000     0.000000000000E+000
     0.394761965619E+002     0.104907073904E-010     0.000000000000E+000     0.000000000000E+000     0.000000000000E+000
     0.404761965619E+002     0.677766246804E-011     0.000000000000E+000     0.000000000000E+000     0.000000000000E+000
     0.414761965619E+002     0.437879990560E-011     0.000000000000E+000     0.000000000000E+000     0.000000000000E+000
     0.424761965619E+002     0.282898251480E-011     0.000000000000E+000     0.000000000000E+000     0.000000000000E+000
     0.434761965619E+002     0.182770216533E-011     0.000000000000E+000     0.000000000000E+000     0.000000000000E+000
     0.444761965619E+002     0.118081154185E-011     0.000000000000E+000     0.000000000000E+000     0.000000000000E+000
     0.454761965619E+002     0.762879162591E-012     0.000000000000E+000     0.000000000000E+000     0.000000000000E+000
     0.464761965619E+002     0.492868333422E-012     0.000000000000E+000     0.000000000000E+000     0.000000000000E+000
     0.474761965619E+002     0.318424209235E-012     0.000000000000E+000     0.000000000000E+000     0.000000000000E+000
     0.484761965619E+002     0.205722238884E-012     0.000000000000E+000     0.000000000000E+000     0.000000000000E+000
     0.494761965619E+002     0.132909616618E-012     0.000000000000E+000     0.000000000000E+000     0.000000000000E+000
     0.504761965619E+002     0.858680436554E-013     0.000000000000E+000     0.000000000000E+000     0.000000000000E+000
     0.514761965619E+002     0.554762033689E-013     0.000000000000E+000     0.000000000000E+000     0.000000000000E+000
     0.524761965619E+002     0.358411465918E-013     0.000000000000E+000     0.000000000000E+000     0.000000000000E+000
     0.534761965619E+002     0.231556543345E-013     0.000000000000E+000     0.000000000000E+000     0.000000000000E+000
     0.544761965619E+002     0.149600216131E-013     0.000000000000E+000     0.000000000000E+000     0.000000000000E+000
     0.554761965619E+002     0.966512297290E-014     0.000000000000E+000     0.000000000000E+000     0.000000000000E+000
     0.564761965619E+002     0.624428256155E-014     0.000000000000E+000     0.000000000000E+000     0.000000000000E+000
     0.574761965619E+002     0.403420264974E-014     0.000000000000E+000     0.000000000000E+000     0.000000000000E+000
     0.584761965619E+002     0.260635082704E-014     0.000000000000E+000     0.000000000000E+000     0.000000000000E+000
     0.594761965619E+002     0.168386797171E-014     0.000000000000E+000     0.000000000000E+000     0.000000000000E+000
     0.604761965619E+002     0.108788552813E-014     0.000000000000E+000     0.000000000000E+000     0.000000000000E+000
     0.614761965619E+002     0.702843062584E-015     0.000000000000E+000     0.000000000000E+000     0.000000000000E+000
     0.624761965619E+002     0.454081204130E-015     0.000000000000E+000     0.000000000000E+000     0.000000000000E+000
     0.634761965619E+002     0.293365263019E-015     0.000000000000E+000     0.000000000000E+000     0.000000000000E+000
     0.644761965619E+002     0.189532569832E-015     0.000000000000E+000     0.000000000000E+000     0.000000000000E+000
     0.654761965619E+002     0.122450063273E-015     0.000000000000E+000     0.000000000000E+000     0.000000000000E+000
     0.664761965619E+002     0.791105085756E-016     0.000000000000E+000     0.000000000000E+000     0.000000000000E+000
     0.674761965619E+002     0.511104069479E-016     0.000000000000E+000     0.000000000000E+000     0.000000000000E+000
     0.684761965619E+002     0.330205650818E-016     0.000000000000E+000     0.000000000000E+000     0.000000000000E+000
     0.694761965619E+002     0.213333796915E-016     0.000000000000E+000     0.000000000000E+000     0.000000000000E+000
     0.704761965619E+002     0.137827165450E-016     0.000000000000E+000     0.000000000000E+000     0.000000000000E+000
     0.714761965619E+002     0.890450917282E-017     0.000000000000E+000     0.000000000000E+000     0.000000000000E+000
     0.724761965619E+002     0.575287776085E-017     0.000000000000E+000     0.000000000000E+000     0.000000000000E+000
     0.734761965619E+002     0.371672394599E-017     0.000000000000E+000     0.000000000000E+000     0.000000000000E+000
     0.744761965619E+002     0.240123941994E-017     0.000000000000E+000     0.000000000000E+000     0.000000000000E+000
     0.754761965619E+002     0.155135297041E-017     0.000000000000E+000     0.000000000000E+000     0.000000000000E+000
     0.764761965619E+002     0.100227241358E-017     0.000000000000E+000     0.000000000000E+000     0.000000000000E+000
     0.774761965619E+002     0.647531544963E-018     0.000000000000E+000     0.000000000000E+000     0.000000000000E+000
     0.784761965619E+002     0.418346442700E-018     0.000000000000E+000     0.000000000000E+000     0.000000000000E+000
     0.794761965619E+002     0.270278329938E-018     0.000000000000E+000     0.000000000000E+000     0.000000000000E+000
     0.804761965619E+002     0.174616937849E-018     0.000000000000E+000     0.000000000000E+000     0.000000000000E+000
     0.814761965619E+002     0.112813611544E-018     0.000000000000E+000     0.000000000000E+000     0.000000000000E+000
     0.824761965619E+002     0.728847433465E-019     0.000000000000E+000     0.000000000000E+000     0.000000000000E+000
     0.834761965619E+002     0.470881625355E-019     0.000000000000E+000     0.000000000000E+000     0.000000000000E+000
     0.844761965619E+002     0.304219357199E-019     0.000000000000E+000     0.000000000000E+000     0.000000000000E+000
     0.854761965619E+002     0.196544966495E-019     0.000000000000E+000     0.000000000000E+000     0.000000000000E+000
     0.864761965619E+002     0.126980485488E-019     0.000000000000E+000     0.000000000000E+000     0.000000000000E+000
     0.874761965619E+002     0.820374227659E-020     0.000000000000E+000     0.000000000000E+000     0.000000000000E+000
     0.884761965619E+002     0.530013573626E-020     0.000000000000E+000     0.000000000000E+000     0.000000000000E+000
     0.894761965619E+002     0.342422206494E-020     0.000000000000E+000     0.000000000000E+000     0.000000000000E+000
     0.904761965619E+002     0.221226312463E-020     0.000000000000E+000     0.000000000000E+000     0.000000000000E+000
     0.914761965619E+002     0.142926101281E-020     0.000000000000E+000     0.000000000000E+000     0.000000000000E+000
     0.924761965619E+002     0.923392184520E-021     0.000000000000E+000     0.000000000000E+000     0.000000000000E+000
     0.934761965619E+002     0.596569004808E-021     0.000000000000E+000     0.000000000000E+000     0.000000000000E+000
     0.944761965619E+002     0.385420644438E-021     0.000000000000E+000     0.000000000000E+000     0.000000000000E+000
     0.954761965619E+002     0.249005532118E-021     0.000000000000E+000     0.000000000000E+000     0.000000000000E+000
     0.964761965619E+002     0.160872819314E-021     0.000000000000E+000     0.000000000000E+000     0.000000000000E+000
     0.974761965619E+002     0.103933583041E-021     0.000000000000E+000     0.000000000000E+000     0.000000000000E+000
     0.984761965619E+002     0.671472976058E-022     0.000000000000E+000     0.000000000000E+000     0.000000000000E+000
     0.994761965619E+002     0.433810852375E-022     0.000000000000E+000     0.000000000000E+000     0.000000000000E+000
     0.100476196562E+003     0.280266562573E-022     0.000000000000E+000     0.000000000000E+000     0.000000000000E+000
     0.101476196562E+003     0.181067647511E-022     0.000000000000E+000     0.000000000000E+000     0.000000000000E+000
     0.102476196562E+003     0.116979222963E-022     0.000000000000E+000     0.000000000000E+000     0.000000000000E+000
     0.103476196562E+003     0.755743444867E-023     0.000000000000E+000     0.000000000000E+000     0.000000000000E+000
     0.104476196562E+003     0.488244268657E-023     0.000000000000E+000     0.000000000000E+000     0.000000000000E+000
     0.105476196562E+003     0.315425024914E-023     0.000000000000E+000     0.000000000000E+000     0.000000000000E+000
     0.106476196562E+003     0.203774677602E-023     0.000000000000E+000     0.000000000000E+000     0.000000000000E+000
     0.107476196562E+003     0.131643026409E-023     0.000000000000E+000     0.000000000000E+000     0.000000000000E+000
     0.108476196562E+003     0.850427146051E-024     0.000000000000E+000     0.000000000000E+000     0.000000000000E+000
     0.109476196562E+003     0.549370612042E-024     0.000000000000E+000     0.000000000000E+000     0.000000000000E+000
     0.110476196562E+003     0.354878296527E-024     0.000000000000E+000     0.000000000000E+000     0.000000000000E+000
     0.111476196562E+003     0.229231762285E-024     0.000000000000E+000     0.000000000000E+000     0.000000000000E+000
     0.112476196562E+003     0.148062737156E-024     0.000000000000E+000     0.000000000000E+000     0.000000000000E+000
     0.113476196562E+003     0.956279659214E-025     0.000000000000E+000     0.000000000000E+000     0.000000000000E+000
     0.114476196562E+003     0.617564706967E-025     0.000000000000E+000     0.000000000000E+000     0.000000000000E+000
     0.115476196562E+003     0.398772923593E-025     0.000000000000E+000     0.000000000000E+000     0.000000000000E+000
     0.116476196562E+003     0.257452905100E-025     0.000000000000E+000     0.000000000000E+000     0.000000000000E+000
     0.117476196562E+003     0.166179328653E-025     0.000000000000E+000     0.000000000000E+000     0.000000000000E+000
     0.118476196562E+003     0.107234518864E-025     0.000000000000E+000     0.000000000000E+000     0.000000000000E+000
     0.119476196562E+003     0.691724266361E-026     0.000000000000E+000     0.000000000000E+000     0.000000000000E+000
     0.120476196562E+003     0.445987620579E-026     0.000000000000E+000     0.000000000000E+000     0.000000000000E+000
     0.121476196562E+003     0.287368367023E-026     0.000000000000E+000     0.000000000000E+000     0.000000000000E+000
     0.122476196562E+003     0.185010213071E-026     0.000000000000E+000     0.000000000000E+000     0.000000000000E+000
     0.123476196562E+003     0.118981528865E-026     0.000000000000E+000     0.000000000000E+000     0.000000000000E+000
     0.124476196562E+003     0.764081604471E-027     0.000000000000E+000     0.000000000000E+000     0.000000000000E+000
     0.125476196562E+003     0.489750683361E-027     0.000000000000E+000     0.000000000000E+000     0.000000000000E+000
     0.126476196562E+003     0.313123004853E-027     0.000000000000E+000     0.000000000000E+000     0.000000000000E+000
     0.127476196562E+003     0.199522898142E-027     0.000000000000E+000     0.000000000000E+000     0.000000000000E+000
     0.128476196562E+003     0.126562539608E-027     0.000000000000E+000     0.000000000000E+000     0.000000000000E+000
     0.129476196562E+003     0.797905032157E-028     0.000000000000E+000     0.000000000000E+000     0.000000000000E+000
     0.130476196562E+003     0.498808146529E-028     0.000000000000E+000     0.000000000000E+000     0.000000000000E+000
     0.131476196562E+003     0.308172107860E-028     0.000000000000E+000     0.000000000000E+000     0.000000000000E+000
     0.132476196562E+003     0.187203162211E-028     0.000000000000E+000     0.000000000000E+000     0.000000000000E+000
     0.133476196562E+003     0.110901441180E-028     0.000000000000E+000     0.000000000000E+000     0.000000000000E+000
