 #              _____________________  _______________________             #
 #              ___  __ \__  __ \_  / / /_  /___  ____/_  ___/             #
 #              __  / / /_  /_/ /  / / /_  __/_  __/  _____ \              #
 #              _  /_/ /_  _, _// /_/ / / /_ _  /___  ____/ /              #
 #              /_____/ /_/ |_| \____/  \__/ /_____/  /____/               #
 #                                                                         #
  
 #        time                      c  [M/L^3]                   concetration [M/L^3]       concentration flux [M.L^{-2}.T^{-1}]   in    x              directions   cumulative flux
 #-----------------------------------------------------------------------------------------------

     0.000000000000E+000     0.000000000000E+000     0.000000000000E+000     0.000000000000E+000     0.000000000000E+000
     0.100000000000E+000    -0.119094198487E-006    -0.200640378075E-006     0.345373175615E-009     0.345373175615E-010
     0.206000000000E+000    -0.245284890977E-006    -0.413236361526E-006     0.711326183836E-009     0.109937893048E-009
     0.318360000000E+000    -0.378991813996E-006    -0.638495088875E-006     0.109907626059E-008     0.233430101688E-009
     0.437461600000E+000    -0.520659144440E-006    -0.877164873820E-006     0.150991151887E-008     0.413262979445E-009
     0.563709296000E+000    -0.670756874887E-006    -0.113003752226E-005     0.194519493717E-008     0.658839358534E-009
     0.697531853760E+000    -0.829782260328E-006    -0.139795076962E-005     0.240636855495E-008     0.980865753470E-009
     0.839383764986E+000    -0.998261339244E-006    -0.168179084345E-005     0.289495788381E-008     0.139152106221E-008
     0.989746790885E+000    -0.117675053201E-005    -0.198249515629E-005     0.341257654284E-008     0.190464639730E-008
     0.114913159834E+001    -0.136583831958E-005    -0.230105513376E-005     0.396093112677E-008     0.253595864228E-008
     0.131807949424E+001    -0.156614700532E-005    -0.263851918280E-005     0.454182631543E-008     0.330329064181E-008
     0.149716426389E+001    -0.177833456305E-005    -0.299599580505E-005     0.515717023283E-008     0.422686128503E-008
     0.168699411973E+001    -0.200309657384E-005    -0.337465685988E-005     0.580898006414E-008     0.532957913314E-008
     0.188821376691E+001    -0.224116825458E-005    -0.377574098186E-005     0.649938793829E-008     0.663738368099E-008
     0.210150659292E+001    -0.249332658056E-005    -0.420055715680E-005     0.723064708361E-008     0.817962883137E-008
     0.232759698850E+001    -0.276039250466E-005    -0.465048846045E-005     0.800513826350E-008     0.998951370800E-008
     0.256725280781E+001    -0.304323327520E-005    -0.512699596340E-005     0.882537649808E-008     0.121045665434E-007
     0.282128797628E+001    -0.334276485422E-005    -0.563162280520E-005     0.969401807723E-008     0.145671880588E-007
     0.309056525485E+001    -0.365995443768E-005    -0.616599844024E-005     0.106138678693E-007     0.174252615138E-007
     0.337599917015E+001    -0.399582307865E-005    -0.673184305706E-005     0.115878869281E-007     0.207328374496E-007
     0.367855912035E+001    -0.435144841390E-005    -0.733097217186E-005     0.126192004003E-007     0.245509020944E-007
     0.399927266758E+001    -0.472796749381E-005    -0.796530139618E-005     0.137111057320E-007     0.289482394500E-007
     0.433922902763E+001    -0.512657971472E-005    -0.863685137699E-005     0.148670811727E-007     0.340023982501E-007
     0.469958276929E+001    -0.554854985201E-005    -0.934775290668E-005     0.160907945708E-007     0.398007762800E-007
     0.508155773545E+001    -0.599521119123E-005    -0.101002521981E-004     0.173861124546E-007     0.464418359964E-007
     0.548645119957E+001    -0.646796875347E-005    -0.108967163183E-004     0.187571093850E-007     0.540364669923E-007
     0.591563827155E+001    -0.696830260973E-005    -0.117396387727E-004     0.202080775682E-007     0.627095126340E-007
     0.637057656784E+001    -0.749777127780E-005    -0.126316452271E-004     0.217435367056E-007     0.726014801783E-007
     0.685281116191E+001    -0.805801519320E-005    -0.135754993563E-004     0.233682440603E-007     0.838704558668E-007
     0.736397983162E+001    -0.865076024385E-005    -0.145741087980E-004     0.250872047071E-007     0.966942489238E-007
     0.790581862152E+001    -0.927782135616E-005    -0.156305311952E-004     0.269056819329E-007     0.111272791064E-006
     0.848016773881E+001    -0.994110611742E-005    -0.167479802981E-004     0.288292077405E-007     0.127830821082E-006
     0.908897780314E+001    -0.106426184167E-004    -0.179298320990E-004     0.308635934084E-007     0.146620887370E-006
     0.973431647133E+001    -0.113844620835E-004    -0.191796309614E-004     0.330149400423E-007     0.167926704807E-006
     0.104183754596E+002    -0.121688444999E-004    -0.205010957059E-004     0.352896490498E-007     0.192066906433E-006
     0.111434779872E+002    -0.129980801571E-004    -0.218981256022E-004     0.376944324555E-007     0.219399234682E-006
     0.119120866664E+002    -0.138745941246E-004    -0.233748062137E-004     0.402363229615E-007     0.250325221731E-006
     0.127268118664E+002    -0.148009253946E-004    -0.249354150309E-004     0.429226836445E-007     0.285295413747E-006
     0.135904205784E+002    -0.157797300573E-004    -0.265844268222E-004     0.457612171663E-007     0.324815199563E-006
     0.145058458131E+002    -0.168137842602E-004    -0.283265186189E-004     0.487599743547E-007     0.369451310530E-006
     0.154761965619E+002    -0.179059868952E-004    -0.301665742421E-004     0.519273619962E-007     0.419839065126E-006
     0.165047683556E+002    -0.190593619513E-004    -0.321096882667E-004     0.552721496589E-007     0.476690439243E-006
     0.175950544569E+002    -0.202770604633E-004    -0.341611693038E-004     0.588034753436E-007     0.540803051120E-006
     0.187507577243E+002    -0.215623619776E-004    -0.363265424709E-004     0.625308497350E-007     0.613070158473E-006
     0.199758031878E+002    -0.229186754483E-004    -0.386115509012E-004     0.664641588000E-007     0.694491774694E-006
     0.212743513791E+002    -0.243495394659E-004    -0.410221561290E-004     0.706136644512E-007     0.786187020946E-006
     0.226508124618E+002    -0.258586217117E-004    -0.435645371702E-004     0.749900029640E-007     0.889407841620E-006
     0.241098612095E+002    -0.274497175181E-004    -0.462450880972E-004     0.796041808026E-007     0.100555422193E-005
     0.256564528821E+002    -0.291267474057E-004    -0.490704138893E-004     0.844675674766E-007     0.113619105839E-005
     0.272958400550E+002    -0.308937534535E-004    -0.520473243182E-004     0.895918850152E-007     0.128306684549E-005
     0.290335904583E+002    -0.327548943474E-004    -0.551828256050E-004     0.949891936076E-007     0.144813435499E-005
     0.308756058858E+002    -0.347144389380E-004    -0.584841095676E-004     0.100671872920E-006     0.163357349802E-005
     0.328281422390E+002    -0.367767581251E-004    -0.619585399486E-004     0.106652598563E-006     0.184181657387E-005
     0.348281422390E+002    -0.388737966815E-004    -0.654914627452E-004     0.112734010376E-006     0.206728459463E-005
     0.368281422390E+002    -0.409555347634E-004    -0.689986085266E-004     0.118771050814E-006     0.230482669625E-005
     0.388281422390E+002    -0.430220840278E-004    -0.724801654033E-004     0.124764043681E-006     0.255435478361E-005
     0.408281422390E+002    -0.450735553166E-004    -0.759363201130E-004     0.130713310418E-006     0.281578140445E-005
     0.428281422390E+002    -0.471100586624E-004    -0.793672580298E-004     0.136619170121E-006     0.308901974469E-005
     0.448281422390E+002    -0.491317032946E-004    -0.827731631745E-004     0.142481939554E-006     0.337398362380E-005
     0.468281422390E+002    -0.511385976452E-004    -0.861542182249E-004     0.148301933171E-006     0.367058749014E-005
     0.488281422390E+002    -0.531308493546E-004    -0.895106045247E-004     0.154079463128E-006     0.397874641640E-005
     0.508281422390E+002    -0.551085652774E-004    -0.928425020942E-004     0.159814839305E-006     0.429837609501E-005
     0.528281422390E+002    -0.570718514882E-004    -0.961500896391E-004     0.165508369316E-006     0.462939283364E-005
     0.548281422390E+002    -0.590208132871E-004    -0.994335445610E-004     0.171160358532E-006     0.497171355071E-005
     0.568281422390E+002    -0.609555552056E-004    -0.102693042966E-003     0.176771110096E-006     0.532525577090E-005
     0.588281422390E+002    -0.628761810123E-004    -0.105928759675E-003     0.182340924936E-006     0.568993762077E-005
     0.608281422390E+002    -0.647827937179E-004    -0.109140868232E-003     0.187870101782E-006     0.606567782433E-005
     0.628281422390E+002    -0.666754955815E-004    -0.112329540916E-003     0.193358937186E-006     0.645239569871E-005
     0.648281422390E+002    -0.685543881154E-004    -0.115494948746E-003     0.198807725535E-006     0.685001114978E-005
     0.668281422390E+002    -0.704195720912E-004    -0.118637261493E-003     0.204216759064E-006     0.725844466790E-005
     0.688281422390E+002    -0.722711475446E-004    -0.121756647691E-003     0.209586327879E-006     0.767761732366E-005
     0.708281422390E+002    -0.741092137813E-004    -0.124853274642E-003     0.214916719966E-006     0.810745076359E-005
     0.728281422390E+002    -0.759338693818E-004    -0.127927308425E-003     0.220208221207E-006     0.854786720601E-005
     0.748281422390E+002    -0.777452122072E-004    -0.130978913910E-003     0.225461115401E-006     0.899878943681E-005
     0.768281422390E+002    -0.795433394043E-004    -0.134008254761E-003     0.230675684272E-006     0.946014080536E-005
     0.788281422390E+002    -0.813283474106E-004    -0.137015493450E-003     0.235852207491E-006     0.993184522034E-005
     0.808281422390E+002    -0.831003319597E-004    -0.140000791259E-003     0.240990962683E-006     0.104138271457E-004
     0.828281422390E+002    -0.848593880863E-004    -0.142964308297E-003     0.246092225450E-006     0.109060115966E-004
     0.848281422390E+002    -0.866056101317E-004    -0.145906203501E-003     0.251156269382E-006     0.114083241354E-004
     0.868281422390E+002    -0.883390917481E-004    -0.148826634650E-003     0.256183366070E-006     0.119206908675E-004
     0.888281422390E+002    -0.900599259045E-004    -0.151725758370E-003     0.261173785123E-006     0.124430384378E-004
     0.908281422390E+002    -0.917682048910E-004    -0.154603730144E-003     0.266127794184E-006     0.129752940261E-004
     0.928281422390E+002    -0.934640203241E-004    -0.157460704320E-003     0.271045658940E-006     0.135173853440E-004
     0.948281422390E+002    -0.951474631517E-004    -0.160296834121E-003     0.275927643140E-006     0.140692406303E-004
     0.968281422390E+002    -0.968186236576E-004    -0.163112271648E-003     0.280774008607E-006     0.146307886475E-004
     0.988281422390E+002    -0.984775914668E-004    -0.165907167896E-003     0.285585015254E-006     0.152019586780E-004
     0.100828142239E+003    -0.100124455550E-003    -0.168681672754E-003     0.290360921096E-006     0.157826805202E-004
     0.102828142239E+003    -0.101759304229E-003    -0.171435935020E-003     0.295101982264E-006     0.163728844847E-004
     0.104828142239E+003    -0.103382225179E-003    -0.174170102404E-003     0.299808453020E-006     0.169725013908E-004
     0.106828142239E+003    -0.104993305438E-003    -0.176884321538E-003     0.304480585772E-006     0.175814625623E-004
     0.108828142239E+003    -0.106592631407E-003    -0.179578737984E-003     0.309118631082E-006     0.181996998245E-004
     0.110828142239E+003    -0.108180288857E-003    -0.182253496243E-003     0.313722837687E-006     0.188271454998E-004
     0.112828142239E+003    -0.109756362932E-003    -0.184908739759E-003     0.318293452505E-006     0.194637324049E-004
     0.114828142239E+003    -0.111320938155E-003    -0.187544610929E-003     0.322830720654E-006     0.201093938462E-004
     0.116828142239E+003    -0.112874098434E-003    -0.190161251113E-003     0.327334885462E-006     0.207640636171E-004
     0.118828142239E+003    -0.114415927061E-003    -0.192758800637E-003     0.331806188481E-006     0.214276759940E-004
     0.120828142239E+003    -0.115946506722E-003    -0.195337398804E-003     0.336244869500E-006     0.221001657330E-004
     0.122828142239E+003    -0.117465919500E-003    -0.197897183900E-003     0.340651166558E-006     0.227814680662E-004
     0.124828142239E+003    -0.118974246878E-003    -0.200438293200E-003     0.345025315956E-006     0.234715186981E-004
     0.126828142239E+003    -0.120471569744E-003    -0.202960862980E-003     0.349367552271E-006     0.241702538026E-004
     0.128828142239E+003    -0.121957968397E-003    -0.205465028519E-003     0.353678108368E-006     0.248776100194E-004
     0.130828142239E+003    -0.123433522549E-003    -0.207950924109E-003     0.357957215412E-006     0.255935244502E-004
     0.132828142239E+003    -0.124898311330E-003    -0.210418683063E-003     0.362205102880E-006     0.263179346559E-004
     0.134828142239E+003    -0.126352413292E-003    -0.212868437720E-003     0.366421998575E-006     0.270507786531E-004
     0.136828142239E+003    -0.127795906414E-003    -0.215300319454E-003     0.370608128637E-006     0.277919949104E-004
     0.138828142239E+003    -0.129228868108E-003    -0.217714458679E-003     0.374763717557E-006     0.285415223455E-004
     0.140828142239E+003    -0.130651375218E-003    -0.220110984857E-003     0.378888988184E-006     0.292993003218E-004
     0.142828142239E+003    -0.132063504028E-003    -0.222490026506E-003     0.382984161745E-006     0.300652686453E-004
     0.144828142239E+003    -0.133465330266E-003    -0.224851711206E-003     0.387049457850E-006     0.308393675610E-004
     0.146828142239E+003    -0.134856929107E-003    -0.227196165605E-003     0.391085094505E-006     0.316215377500E-004
     0.148828142239E+003    -0.136238375177E-003    -0.229523515429E-003     0.395091288127E-006     0.324117203263E-004
     0.150828142239E+003    -0.137609742558E-003    -0.231833885482E-003     0.399068253553E-006     0.332098568334E-004
     0.152828142239E+003    -0.138971104790E-003    -0.234127399661E-003     0.403016204052E-006     0.340158892415E-004
     0.154828142239E+003    -0.140322534877E-003    -0.236404180958E-003     0.406935351336E-006     0.348297599442E-004
     0.156828142239E+003    -0.141664105291E-003    -0.238664351466E-003     0.410825905573E-006     0.356514117553E-004
     0.158828142239E+003    -0.142995887974E-003    -0.240908032387E-003     0.414688075396E-006     0.364807879061E-004
     0.160828142239E+003    -0.144317954343E-003    -0.243135344041E-003     0.418522067916E-006     0.373178320419E-004
     0.162828142239E+003    -0.145630375295E-003    -0.245346405866E-003     0.422328088733E-006     0.381624882194E-004
     0.164828142239E+003    -0.146933221207E-003    -0.247541336432E-003     0.426106341945E-006     0.390147009033E-004
     0.166828142239E+003    -0.148226561945E-003    -0.249720253441E-003     0.429857030163E-006     0.398744149636E-004
     0.168828142239E+003    -0.149510466864E-003    -0.251883273736E-003     0.433580354517E-006     0.407415756727E-004
     0.170828142239E+003    -0.150785004813E-003    -0.254030513309E-003     0.437276514672E-006     0.416161287020E-004
     0.172828142239E+003    -0.152050244138E-003    -0.256162087305E-003     0.440945708832E-006     0.424980201197E-004
     0.174828142239E+003    -0.153306252687E-003    -0.258278110027E-003     0.444588133759E-006     0.433871963872E-004
     0.176828142239E+003    -0.154553097812E-003    -0.260378694946E-003     0.448203984776E-006     0.442836043567E-004
     0.178828142239E+003    -0.155790846374E-003    -0.262463954704E-003     0.451793455783E-006     0.451871912683E-004
     0.180828142239E+003    -0.157019564746E-003    -0.264534001119E-003     0.455356739263E-006     0.460979047468E-004
     0.182828142239E+003    -0.158239318816E-003    -0.266588945196E-003     0.458894026296E-006     0.470156927994E-004
     0.184828142239E+003    -0.159450173992E-003    -0.268628897128E-003     0.462405506568E-006     0.479405038126E-004
     0.186828142239E+003    -0.160652195205E-003    -0.270653966305E-003     0.465891368379E-006     0.488722865493E-004
     0.188828142239E+003    -0.161845446909E-003    -0.272664261317E-003     0.469351798658E-006     0.498109901466E-004
     0.190828142239E+003    -0.163029993093E-003    -0.274659889963E-003     0.472786982969E-006     0.507565641126E-004
     0.192828142239E+003    -0.164205897273E-003    -0.276640959255E-003     0.476197105521E-006     0.517089583236E-004
     0.194828142239E+003    -0.165373222507E-003    -0.278607575422E-003     0.479582349179E-006     0.526681230220E-004
     0.196828142239E+003    -0.166532031388E-003    -0.280559843921E-003     0.482942895477E-006     0.536340088129E-004
     0.198828142239E+003    -0.167682386056E-003    -0.282497869437E-003     0.486278924622E-006     0.546065666622E-004
     0.200828142239E+003    -0.168824348195E-003    -0.284421755891E-003     0.489590615508E-006     0.555857478932E-004
     0.202828142239E+003    -0.169957979040E-003    -0.286331606448E-003     0.492878145721E-006     0.565715041846E-004
     0.204828142239E+003    -0.171083339378E-003    -0.288227523517E-003     0.496141691556E-006     0.575637875677E-004
     0.206828142239E+003    -0.172200489554E-003    -0.290109608762E-003     0.499381428018E-006     0.585625504238E-004
     0.208828142239E+003    -0.173309489471E-003    -0.291977963102E-003     0.502597528840E-006     0.595677454815E-004
     0.210828142239E+003    -0.174410398596E-003    -0.293832686723E-003     0.505790166484E-006     0.605793258144E-004
     0.212828142239E+003    -0.175503275961E-003    -0.295673879077E-003     0.508959512157E-006     0.615972448387E-004
     0.214828142239E+003    -0.176588180168E-003    -0.297501638893E-003     0.512105735815E-006     0.626214563104E-004
     0.216828142239E+003    -0.177665169391E-003    -0.299316064176E-003     0.515229006177E-006     0.636519143227E-004
     0.218828142239E+003    -0.178734301378E-003    -0.301117252218E-003     0.518329490730E-006     0.646885733042E-004
     0.220828142239E+003    -0.179795633459E-003    -0.302905299601E-003     0.521407355742E-006     0.657313880157E-004
     0.222828142239E+003    -0.180849222542E-003    -0.304680302200E-003     0.524462766266E-006     0.667803135482E-004
     0.224828142239E+003    -0.181895125121E-003    -0.306442355193E-003     0.527495886155E-006     0.678353053205E-004
     0.226828142239E+003    -0.182933397278E-003    -0.308191553061E-003     0.530506878064E-006     0.688963190766E-004
     0.228828142239E+003    -0.183964094685E-003    -0.309927989598E-003     0.533495903465E-006     0.699633108836E-004
     0.230828142239E+003    -0.184987272609E-003    -0.311651757909E-003     0.536463122653E-006     0.710362371289E-004
     0.232828142239E+003    -0.186002985912E-003    -0.313362950425E-003     0.539408694753E-006     0.721150545184E-004
     0.234828142239E+003    -0.187011289056E-003    -0.315061658898E-003     0.542332777733E-006     0.731997200738E-004
     0.236828142239E+003    -0.188012236105E-003    -0.316747974411E-003     0.545235528407E-006     0.742901911307E-004
     0.238828142239E+003    -0.189005880731E-003    -0.318421987385E-003     0.548117102448E-006     0.753864253356E-004
     0.240828142239E+003    -0.189992276211E-003    -0.320083787578E-003     0.550977654397E-006     0.764883806444E-004
     0.242828142239E+003    -0.190971475434E-003    -0.321733464093E-003     0.553817337664E-006     0.775960153197E-004
     0.244828142239E+003    -0.191943530904E-003    -0.323371105384E-003     0.556636304548E-006     0.787092879288E-004
