 #              _____________________  _______________________             #
 #              ___  __ \__  __ \_  / / /_  /___  ____/_  ___/             #
 #              __  / / /_  /_/ /  / / /_  __/_  __/  _____ \              #
 #              _  /_/ /_  _, _// /_/ / / /_ _  /___  ____/ /              #
 #              /_____/ /_/ |_| \____/  \__/ /_____/  /____/               #
 #                                                                         #
  
 #        time                      [L]                   runoff elevation [m a.m.s.l]       runoff flux [L3.T-1.L-2]   in    x              directions   cumulative flux
 #-----------------------------------------------------------------------------------------------

   0.0000000000000000          0.0000000000000000          -0.0000000000000000          0.0000000000000000     
   1.0000000000000000          0.0000000000000000          -0.0000000000000000          0.0000000000000000     
   2.0060000000000002          0.0000000000000000          -0.0000000000000000          0.0000000000000000     
   3.0180360000000004          0.0000000000000000          -0.0000000000000000          0.0000000000000000     
   4.0361442160000003          0.0000000000000000          -0.0000000000000000          0.0000000000000000     
   5.0603610812960005          0.0000000000000000          -0.0000000000000000          0.0000000000000000     
   6.0907232477837763          0.0000000000000000          -0.0000000000000000          0.0000000000000000     
   7.1272675872704792          0.0000000000000000          -0.0000000000000000          0.0000000000000000     
   8.1700311927941023          0.0000000000000000          -0.0000000000000000          0.0000000000000000     
   9.2190513799508675          0.0000000000000000          -0.0000000000000000          0.0000000000000000     
   10.274365688230573          0.0000000000000000          -0.0000000000000000          0.0000000000000000     
   11.336011882359955          0.0000000000000000          -0.0000000000000000          0.0000000000000000     
   12.404027953654115          0.0000000000000000          -0.0000000000000000          0.0000000000000000     
   13.478452121376039          0.0000000000000000          -0.0000000000000000          0.0000000000000000     
   14.559322834104295          0.0000000000000000          -0.0000000000000000          0.0000000000000000     
   15.646678771108920          0.0000000000000000          -0.0000000000000000          0.0000000000000000     
   16.740558843735574          4.4729133776544533E-004     -8.2247556936105835E-011     8.9432369338600644E-011
   17.841002196797987          1.9806827916703253E-003     -9.8211815912409430E-010     1.1637518525692199E-009
   18.948048209978776          4.5169636155609899E-003     -3.8804597308190183E-009     5.4339779701753691E-009
   20.061736499238648          7.9849070266583139E-003     -1.0028946163828955E-008     1.6536482837246965E-008
   21.182106918234080          1.2323024863535578E-002     -2.0669710867160792E-008     3.9556097772391459E-008
   22.309199559743483          1.7477835274355414E-002     -3.7007089481819254E-008     8.1017746120938725E-008
   23.443054757101944          2.3402507166985911E-002     -6.0197183493385106E-008     1.4886554867592444E-007
   24.583713085644554          3.0055785947133346E-002     -9.1345188337885938E-008     2.5243776522652387E-007
   25.731215364158420          3.7401132395817917E-002     -1.3150636687559529E-007     4.0244159785955185E-007
   26.885602656343369          4.5406025220763306E-002     -1.8168873611179837E-007     6.1092983652814523E-007
   28.046916272281429          5.4041390829559249E-002     -2.4285649521107477E-007     8.9128028842438522E-007
   29.215197769915118          6.3281133089914648E-002     -3.1593368900979963E-007     1.2581783832050062E-006
   30.390488956534607          7.3101742471674502E-002     -4.0180784226841937E-007     1.7276030509313162E-006
   31.572831890273815          8.3481968800299136E-002     -5.0133342962836282E-007     2.3168158123312536E-006
   32.762268881615455          9.4402545423374978E-002     -6.1533511770721594E-007     3.0443529406339639E-006
   33.958842494905149         0.10584595526179900          -7.4461075549174019E-007     3.9300205173666868E-006
   35.162595549874581         0.11779623123515086          -8.8993411111816979E-007     4.9948921922971060E-006
   36.373571123173825         0.13023878509125827          -1.0520573648917086E-006     6.2613094592885894E-006
   37.591812549912866         0.14316025985713504          -1.2317133742915536E-006     7.7528842688616536E-006
   38.817363425212342         0.15654840205135592          -1.4296177292110737E-006     9.4945038109871825E-006
   40.050267605763615         0.17039195052008979          -1.6464706162275393E-006     1.1512337315859714E-005
   41.290569211398200         0.18468053931216302          -1.8829585098626257E-006     1.3833844734473942E-005
   42.538312626666588         0.19940461227151163          -2.1397557041468286E-006     1.6487787169993010E-005
   43.793542502426590         0.21455534587718852          -2.4175256665409951E-006     1.9504238901661862E-005
   45.056303757441150         0.23012456803560766          -2.7169220030005324E-006     2.2914600569937830E-005
   46.326641579985797         0.24610461840433673          -3.0385878715187011E-006     2.6751611604048803E-005
   47.604601429465710         0.26248794439485246          -3.3831490375080730E-006     3.1049353785700829E-005
   48.890229038042506         0.27926581481212420          -3.7511850425797703E-006     3.5843217658087377E-005
   50.183570412270761         0.29642471883213872          -4.1431394853708659E-006     4.1169752166664814E-005
   51.484671834744383         0.31393801822000589          -4.5590957614087759E-006     4.7066219343963450E-005
   52.793579865752847         0.33175031306701497          -4.9983242872881900E-006     5.3569546184138581E-005
   54.110341344947365         0.34975460228132665          -5.4585579288786997E-006     6.0714296494972849E-005
   55.435003393017048         0.36776856035436289          -5.9351248612419791E-006     6.8529440286465985E-005
   56.767613413375152         0.38552334330631532          -6.4203197796969362E-006     7.7034194235101630E-005
   58.108219093855404         0.40267956691385653          -6.9035347484255200E-006     8.6233913816743832E-005
   59.456868408418536         0.41887514805999676          -7.3724728918536205E-006     9.6117492854749459E-005
   60.813609618869044         0.43379215647895797          -7.8152285957379070E-006     1.0665749554354558E-004
   62.178491276582257         0.44721715700735232          -8.2224824366670688E-006     1.1781327631757733E-004
   63.551562224241749         0.45907208474328015          -8.5889551593296050E-006     1.2953618367346758E-004
   64.932871597587194         0.46940829000929990          -8.9136748045777887E-006     1.4177529158451775E-004
   66.322468827172713         0.47837303415564131          -9.1991989482369752E-006     1.5448223131898711E-004
   67.720403640135743         0.48616545621991331          -9.4503020471724122E-006     1.6761434486248428E-004
   69.126726061976555         0.49299682349696755          -9.6726556896733279E-006     1.8113608698488363E-004
   70.541486418348413         0.49906282526956125          -9.8718275904546886E-006     1.9501905946988686E-004
   71.964735336858510         0.50452902030029778          -1.0052693621328010E-005     2.0924121188009399E-004
   73.396523748879659         0.50952669257317074          -1.0219204599877080E-005     2.2378568377490239E-004
   74.836902891372944         0.51415521517704188          -1.0374390773478366E-005     2.3863961626614786E-004
   76.285924308721178         0.51848749185320009          -1.0520490780190285E-005     2.5379311175472677E-004
   77.743639854573502         0.52257611669417459          -1.0659122561871380E-005     2.6923840863701820E-004
   79.210101693700949         0.52645894496779866          -1.0791447666213753E-005     2.8496926966230978E-004
   80.685362303863158         0.53016354712832270          -1.0918306941191669E-005     3.0098055013944762E-004
   82.169474477686336         0.53371048963678858          -1.1040322456057267E-005     3.1726790298235814E-004
   83.662491324552448         0.53711561375085981          -1.1157969141542303E-005     3.3382758082046445E-004
   85.164466272499766         0.54039155334823208          -1.1271622810855273E-005     3.5065630356859178E-004
   86.675453070134765         0.54354871904956215          -1.1381591341120132E-005     3.6775116863072829E-004
   88.195505788555579         0.54659592893871922          -1.1488134591267831E-005     3.8510958832758794E-004
   89.724678823286908         0.54954081464822480          -1.1591477123434972E-005     4.0272924463957791E-004
   91.263026896226634         0.55239008827701785          -1.1691816463211020E-005     4.2060805510214805E-004
   92.810605057603993         0.55514972393100714          -1.1789328634015358E-005     4.3874414608753863E-004
   94.367468687949611         0.55782508651233975          -1.1884172021847003E-005     4.5713583117460089E-004
   95.933673500077305         0.56042102712890285          -1.1976490197048772E-005     4.7578159318157704E-004
   97.509275541077770         0.56294195657110557          -1.2066414061408793E-005     4.9468006894968076E-004
   99.094331194324241         0.56539190370631753          -1.2154063538835849E-005     5.1383003626791982E-004
   100.68889718149019         0.56777456301218743          -1.2239548942221581E-005     5.3323040251197491E-004
   102.29303056457913         0.57009333396249851          -1.2322972100353981E-005     5.5288019468399425E-004
   103.90678874796660         0.57235135409892157          -1.2404427300617927E-005     5.7277855061501530E-004
   105.53022948045439         0.57455152709202006          -1.2484002086559935E-005     5.9292471114362770E-004
   107.16341085733713         0.57669654676291182          -1.2561777939171244E-005     6.1331801312254500E-004
   108.80639132248115         0.57878891781857122          -1.2637830864160302E-005     6.3395788313408538E-004
   110.45922967041604         0.58083097390046701          -1.2712231902943407E-005     6.5484383181900203E-004
   112.12198504843853         0.58282489342922539          -1.2785047581625680E-005     6.7597544874208515E-004
   113.79471695872917         0.58477271363056449          -1.2856340309323707E-005     6.9735239773310051E-004
   115.47748526048154         0.58667634304154115          -1.2926168734528616E-005     7.1897441265314759E-004
   117.17035017204444         0.58853757271939189          -1.2994588065786511E-005     7.4084129354458285E-004
   118.87337227307670         0.59035808631019970          -1.3061650360886235E-005     7.6295290312762987E-004
   120.58661250671516         0.59213946908534587          -1.3127404787163754E-005     7.8530916360936649E-004
   122.31013218175545         0.59388321602315308          -1.3191897854587373E-005     8.0791005377189450E-004
   124.04399297484598         0.59559073900139547          -1.3255173623002036E-005     8.3075560630721361E-004
   125.78825693269505         0.59726337316988698          -1.3317273885169796E-005     8.5384590536755794E-004
   127.54298647429123         0.59890238258467365          -1.3378238327818556E-005     8.7718108430228693E-004
   129.30824439313696         0.60050896519886532          -1.3438104673526607E-005     9.0076132355598564E-004
   131.08409385949579         0.60208425731330217          -1.3496908806683045E-005     9.2458684870692183E-004
   132.87059842265276         0.60362933758910342          -1.3554684886823264E-005     9.4865792862984890E-004
   134.66782201318867         0.60514523071319737          -1.3611465452319950E-005     9.7297487377167203E-004
   136.47582894526781         0.60663291078952175          -1.3667281516797044E-005     9.9753803453215520E-004
   138.29468391893943         0.60809330450686494          -1.3722162659879698E-005     1.0223477997443350E-003
   140.12445202245306         0.60952729411359763          -1.3776137113159422E-005     1.0474045952505871E-003
   141.96519873458777         0.61093572021321352          -1.3829231841670620E-005     1.0727088825705712E-003
   143.81698992699529         0.61231938438428735          -1.3881472620808098E-005     1.0982611576569119E-003
   145.67989186655726         0.61367905162417646          -1.3932884108469352E-005     1.1240619497338102E-003
   147.55397121775661         0.61501545261620549          -1.3983489912234248E-005     1.1501118202131566E-003
   149.43929504506315         0.61632928582331881          -1.4033312651530197E-005     1.1764113616823139E-003
   151.33593081533354         0.61762121941538206          -1.4082374014902753E-005     1.2029611969576524E-003
   153.24394640022555         0.61889189304102687          -1.4130694812666419E-005     1.2297619781981297E-003
   155.16341007862690         0.62014191945739849          -1.4178295025318037E-005     1.2568143860736333E-003
   157.09439053909867         0.62137188603213089          -1.4225193848145691E-005     1.2841191289833674E-003
   159.03695688233327         0.62258235613156387          -1.4271409732467277E-005     1.3116769423201482E-003
   160.99117862362726         0.62377387040799792          -1.4316960423898227E-005     1.3394885877770345E-003
   162.95712569536903         0.62494694799713635          -1.4361862997995287E-005     1.3675548526932027E-003
   164.93486844954126         0.62610208763509934          -1.4406133893564963E-005     1.3958765494363765E-003
   166.92447766023849         0.62723976870280618          -1.4449788943871853E-005     1.4244545148194368E-003
   168.92447766023849         0.62835964971743741          -1.4492812557641038E-005     1.4532895481730282E-003
   170.92447766023849         0.62945690560287026          -1.4535016568302180E-005     1.4823595813096325E-003
   172.92447766023849         0.63053228178226928          -1.4576426631400117E-005     1.5115124345724327E-003
   174.92447766023849         0.63158648785949179          -1.4617067214843994E-005     1.5407465690021208E-003
   176.92447766023849         0.63262019961326421          -1.4656961661482745E-005     1.5700604923250862E-003
   178.92447766023849         0.63363406076586670          -1.4696132244154468E-005     1.5994527568133951E-003
   180.92447766023849         0.63462868453853960          -1.4734600213546972E-005     1.6289219572404891E-003
   182.92447766023849         0.63560465506405150          -1.4772385841475893E-005     1.6584667289234409E-003
   184.92447766023849         0.63656252879654873          -1.4809508464919171E-005     1.6880857458532793E-003
   186.92447766023849         0.63750283609649228          -1.4845986537658886E-005     1.7177777189285970E-003
   188.92447766023849         0.63842608313004845          -1.4881837694944588E-005     1.7475413943184861E-003
   190.92447766023849         0.63933275410265200          -1.4917078831979960E-005     1.7773755519824460E-003
   192.92447766023849         0.64022331369234353          -1.4951726191039020E-005     1.8072790043645239E-003
   194.92447766023849         0.64109820943305851          -1.4985795447479799E-005     1.8372505952594835E-003
   196.92447766023849         0.64195787377595637          -1.5019301783992427E-005     1.8672891988274684E-003
   198.92447766023849         0.64280272563360086          -1.5052259945342420E-005     1.8973937187181532E-003
   200.92447766023849         0.64363317134603815          -1.5084684271069150E-005     1.9275630872602914E-003
   202.92447766023849         0.64444960514029548          -1.5116588708773253E-005     1.9577962646778377E-003
   204.92447766023849         0.64525240923986049          -1.5147986813983554E-005     1.9880922383058047E-003
   206.92447766023849         0.64604195380302742          -1.5178891743517130E-005     2.0184500217928390E-003
   208.92447766023849         0.64681859684061549          -1.5209316248184854E-005     2.0488686542892089E-003
   210.92447766023849         0.64758268420986698          -1.5239272668628466E-005     2.0793471996264660E-003
   212.92447766023849         0.64833454972642890          -1.5268772935944443E-005     2.1098847454983547E-003
   214.92447766023849         0.64907451539497640          -1.5297828577134672E-005     2.1404804026526241E-003
   216.92447766023849         0.64980289173569994          -1.5326450724505708E-005     2.1711333041016354E-003
   218.92447766023849         0.65051997817587059          -1.5354650127816520E-005     2.2018426043572685E-003
   220.92447766023849         0.65122606347750078          -1.5382437168038125E-005     2.2326074786933447E-003
   222.92447766023849         0.65192142617842608          -1.5409821871829915E-005     2.2634271224370047E-003
   224.92447766023849         0.65260633503127896          -1.5436813926114328E-005     2.2943007502892335E-003
   226.92447766023849         0.65328104943089171          -1.5463422692367677E-005     2.3252275956739689E-003
   228.92447766023849         0.65394581982507005          -1.5489657220417391E-005     2.3562069101148038E-003
   230.92447766023849         0.65460088810652783          -1.5515526261647744E-005     2.3872379626380994E-003
   232.92447766023849         0.65524648798542995          -1.5541038281581998E-005     2.4183200392012636E-003
   234.92447766023849         0.65588284534289309          -1.5566201471844727E-005     2.4494524421449530E-003
   236.92447766023849         0.65651017856621185          -1.5591023761525574E-005     2.4806344896680043E-003
   238.92447766023849         0.65712869886675085          -1.5615512827972889E-005     2.5118655153239500E-003
   240.92447766023849         0.65773861058148286          -1.5639676107048074E-005     2.5431448675380460E-003
   242.92447766023849         0.65834011145913041          -1.5663520802871155E-005     2.5744719091437881E-003
   244.92447766023849         0.65893339293182318          -1.5687053897086793E-005     2.6058460169379617E-003
   246.92447766023849         0.65951864037313168          -1.5710282157678549E-005     2.6372665812533186E-003
   248.92447766023849         0.66009603334327382          -1.5733212147357014E-005     2.6687330055480325E-003
   250.92447766023849         0.66066574582224891          -1.5755850231546305E-005     2.7002447060111251E-003
   252.92447766023849         0.66122794643159788          -1.5778202585991640E-005     2.7318011111831086E-003
   254.92447766023849         0.66178279864543743          -1.5800275204008844E-005     2.7634016615911265E-003
   256.92447766023849         0.66233046099138293          -1.5822073903395992E-005     2.7950458093979184E-003
   258.92447766023849         0.66287108724193500          -1.5843604333025836E-005     2.8267330180639701E-003
   260.92447766023849         0.66340482659684641          -1.5864871979135818E-005     2.8584627620222417E-003
   262.92447766023849         0.66393182385699256          -1.5885882171332977E-005     2.8902345263649076E-003
   264.92447766023849         0.66445221959019107          -1.5906640088328081E-005     2.9220478065415637E-003
   266.92447766023849         0.66496615028942185          -1.5927150763414003E-005     2.9539021080683915E-003
   268.92447766023849         0.66547374852385288          -1.5947419089701536E-005     2.9857969462477947E-003
   270.92447766023849         0.66597514308305739          -1.5967449825125365E-005     3.0177318458980452E-003
   272.92447766023849         0.66647045911478586          -1.5987247597232181E-005     3.0497063410925094E-003
   274.92447766023849         0.66695981825662709          -1.6006816907761921E-005     3.0817199749080333E-003
   276.92447766023849         0.66744333876188300          -1.6026162137032931E-005     3.1137722991820991E-003
