 #              _____________________  _______________________             #
 #              ___  __ \__  __ \_  / / /_  /___  ____/_  ___/             #
 #              __  / / /_  /_/ /  / / /_  __/_  __/  _____ \              #
 #              _  /_/ /_  _, _// /_/ / / /_ _  /___  ____/ /              #
 #              /_____/ /_/ |_| \____/  \__/ /_____/  /____/               #
 #                                                                         #
  
 #        time                      c  [M/L^3]                   concetration [M/L^3]       concentration flux [M.L^{-2}.T^{-1}]   in    x              directions   cumulative flux
 #-----------------------------------------------------------------------------------------------

     0.000000000000E+000     0.000000000000E+000     0.000000000000E+000     0.000000000000E+000     0.000000000000E+000
     0.154742504911E-004     0.707859354995E-004     0.411257190366E-004    -0.270899682961E-003     0.419196955209E-008
     0.318769560116E-004     0.145699000524E-003     0.846496368738E-004    -0.564445560563E-003     0.134504038644E-007
     0.492638238634E-004     0.224969499515E-003     0.130705504414E-003    -0.896976232059E-003     0.290460110774E-007
     0.676939037862E-004     0.308842680006E-003     0.179437568074E-003    -0.137078176961E-002     0.543096286480E-007
     0.872297885045E-004     0.397575558664E-003     0.230991399584E-003    -0.183290079303E-002     0.901169672407E-007
     0.107937826306E-003     0.491439660423E-003     0.285519204533E-003    -0.180682148044E-002     0.127532694758E-006
     0.129888346375E-003     0.590721641435E-003     0.343193808455E-003    -0.215329949921E-002     0.174798738631E-006
     0.153155897649E-003     0.695720195717E-003     0.404194937833E-003    -0.257575535183E-002     0.234730258348E-006
     0.177819501999E-003     0.806747449714E-003     0.468700283523E-003    -0.302423820573E-002     0.309318872914E-006
     0.203962922610E-003     0.924131840710E-003     0.536900368244E-003    -0.350663584436E-002     0.400994328723E-006
     0.231674948457E-003     0.104821787001E-002     0.608995122594E-003    -0.402569688080E-002     0.512554544738E-006
     0.261049695856E-003     0.117936649264E-002     0.685193713069E-003    -0.457760847616E-002     0.647020637415E-006
     0.292186928098E-003     0.131795559289E-002     0.765714894057E-003    -0.515172023132E-002     0.807430946706E-006
     0.325192394275E-003     0.146438042371E-002     0.850787551966E-003    -0.573525034101E-002     0.996725557852E-006
     0.360178188423E-003     0.161905398382E-002     0.940651200827E-003    -0.632274633684E-002     0.121793185964E-005
     0.397263130219E-003     0.178240733279E-002     0.103555625204E-002    -0.692141093195E-002     0.147461198120E-005
     0.436573168524E-003     0.195488985593E-002     0.113576404408E-002    -0.754515306543E-002     0.177121223721E-005
     0.478241809126E-003     0.213696948778E-002     0.124154670401E-002    -0.820421234871E-002     0.211307061300E-005
     0.522410568165E-003     0.232913288911E-002     0.135318699910E-002    -0.890046397455E-002     0.250619306162E-005
     0.569229452746E-003     0.253188555503E-002     0.147097833297E-002    -0.962994552416E-002     0.295705636964E-005
     0.618857470402E-003     0.274575182068E-002     0.159522486962E-002    -0.103881384815E-001     0.347259908961E-005
     0.671463169117E-003     0.297127473230E-002     0.172624162773E-002    -0.111735004452E-001     0.406038888763E-005
     0.727225209755E-003     0.320901576312E-002     0.186435440901E-002    -0.119877591519E-001     0.472885080062E-005
     0.786332972831E-003     0.345955436143E-002     0.200989952811E-002    -0.128342491757E-001     0.548745456016E-005
     0.848987201692E-003     0.372348731817E-002     0.216322338208E-002    -0.137162074377E-001     0.634683296006E-005
     0.915400684285E-003     0.400142793543E-002     0.232468190133E-002    -0.146359655254E-001     0.731885840171E-005
     0.985798975833E-003     0.429400497043E-002     0.249463989379E-002    -0.155949421182E-001     0.841671568363E-005
     0.106042116487E-002     0.460186132539E-002     0.267347026603E-002    -0.165939753880E-001     0.965499445198E-005
     0.113952068526E-002     0.492565245145E-002     0.286155309230E-002    -0.176336492658E-001     0.110498076515E-004
     0.122336617686E-002     0.526604443380E-002     0.305927450207E-002    -0.187144847301E-001     0.126189328239E-004
     0.131224239797E-002     0.562371172438E-002     0.326702535999E-002    -0.198370051058E-001     0.143819708757E-004
     0.140645119234E-002     0.599933448749E-002     0.348519971632E-002    -0.210017282345E-001     0.163605183723E-004
     0.150631251437E-002     0.639359552278E-002     0.371419300702E-002    -0.222091312164E-001     0.185783515767E-004
     0.161216551572E-002     0.680717672885E-002     0.395439998355E-002    -0.234596128003E-001     0.210616220022E-004
     0.172436969715E-002     0.724075507003E-002     0.420621235145E-002    -0.247534621338E-001     0.238390639586E-004
     0.184330612947E-002     0.769499800894E-002     0.447001609684E-002    -0.260908341381E-001     0.269422146873E-004
     0.196937874773E-002     0.817055836766E-002     0.474618847956E-002    -0.274717291155E-001     0.304056475050E-004
     0.210301572309E-002     0.866806858226E-002     0.503509467253E-002    -0.288959742973E-001     0.342672181100E-004
     0.224467091697E-002     0.918813431754E-002     0.533708402844E-002    -0.303632058973E-001     0.385683239281E-004
     0.239482542247E-002     0.973132741294E-002     0.565248595665E-002    -0.318728509975E-001     0.433541761088E-004
     0.255398919831E-002     0.102981781356E-001     0.598160539677E-002    -0.334241090747E-001     0.486740835132E-004
     0.272270280070E-002     0.108891667238E-001     0.632471787911E-002    -0.350159332162E-001     0.545817477471E-004
     0.290153921924E-002     0.115047142121E-001     0.668206416754E-002    -0.366470111872E-001     0.611355679778E-004
     0.309110582288E-002     0.121451725418E-001     0.705384448691E-002    -0.383157465668E-001     0.683989539206E-004
     0.329204642275E-002     0.128108139726E-001     0.744021234471E-002    -0.400202402079E-001     0.764406449947E-004
     0.350504345860E-002     0.135018198275E-001     0.784126796668E-002    -0.417582723117E-001     0.853350332195E-004
     0.373082031661E-002     0.142182686237E-001     0.825705137664E-002    -0.435272854501E-001     0.951624869660E-004
     0.397014378610E-002     0.149601236618E-001     0.868753516442E-002    -0.453243689097E-001     0.106009672186E-003
     0.422382666375E-002     0.157272201736E-001     0.913261699998E-002    -0.471462447768E-001     0.117969867232E-003
     0.449273051407E-002     0.165192521555E-001     0.959211196923E-002    -0.489892562266E-001     0.131143266855E-003
     0.477776859541E-002     0.173357590470E-001     0.100657448252E-001    -0.508493585264E-001     0.145637270447E-003
     0.507990896162E-002     0.181761124507E-001     0.105531422690E-001    -0.527221132987E-001     0.161566749066E-003
     0.540017774981E-002     0.190395031240E-001     0.110538253969E-001    -0.546026866309E-001     0.179054285345E-003
     0.573966266529E-002     0.199249285165E-001     0.115672024730E-001    -0.564858516440E-001     0.198230379917E-003
     0.609951667570E-002     0.208311811662E-001     0.120925622108E-001    -0.583659961540E-001     0.219233617704E-003
     0.648096192673E-002     0.217568383091E-001     0.126290677723E-001    -0.602371360661E-001     0.242210787192E-003
     0.688529389283E-002     0.227002530981E-001     0.131757517134E-001    -0.620929351316E-001     0.267316945735E-003
     0.731388577689E-002     0.236595478619E-001     0.137315121299E-001    -0.639267316726E-001     0.294715424104E-003
     0.776819317399E-002     0.246326098703E-001     0.142951102740E-001    -0.657315728250E-001     0.324577763862E-003
     0.824975901492E-002     0.256170900926E-001     0.148651699255E-001    -0.675002567763E-001     0.357083581779E-003
     0.876021880631E-002     0.266104913831E-001     0.154402598219E-001    -0.692473816410E-001     0.392431585766E-003
     0.930130618518E-002     0.276099165012E-001     0.160186595465E-001    -0.709446520748E-001     0.430818841602E-003
     0.987485880678E-002     0.286123368614E-001     0.165985985714E-001    -0.725843056634E-001     0.472449760402E-003
     0.104828245857E-001     0.296145224260E-001     0.171781896675E-001    -0.741585887152E-001     0.517535644552E-003
     0.111272683113E-001     0.306130626742E-001     0.177554412598E-001    -0.756598522918E-001     0.566294161644E-003
     0.118103786605E-001     0.316043931700E-001     0.183282730421E-001    -0.770806497788E-001     0.618948751229E-003
     0.125344756306E-001     0.325848279003E-001     0.188945349437E-001    -0.784138335451E-001     0.675727970514E-003
     0.133020184189E-001     0.335505974008E-001     0.194520294553E-001    -0.796526512094E-001     0.736864788521E-003
     0.141156137746E-001     0.344978925019E-001     0.199985372124E-001    -0.807908427583E-001     0.802595842966E-003
     0.149780248515E-001     0.354229133156E-001     0.205318456092E-001    -0.818227391516E-001     0.873160679558E-003
     0.158921805931E-001     0.363219228400E-001     0.210497800788E-001    -0.827433618086E-001     0.948800998833E-003
     0.168611856792E-001     0.371913043014E-001     0.215502375212E-001    -0.835485210465E-001     0.102975994066E-002
     0.178883310704E-001     0.380276210812E-001     0.220312212059E-001    -0.842349104767E-001     0.111628144074E-002
     0.189771051851E-001     0.388276778093E-001     0.224908763195E-001    -0.848001936838E-001     0.120860969655E-002
     0.201312057467E-001     0.395885809547E-001     0.229275251827E-001    -0.852430792144E-001     0.130698878214E-002
     0.213545523420E-001     0.403077970315E-001     0.233397010405E-001    -0.855633799446E-001     0.141166245168E-002
     0.226512997330E-001     0.409832063773E-001     0.237261792370E-001    -0.857620531950E-001     0.152287417040E-002
     0.240258519675E-001     0.416131503819E-001     0.240860045398E-001    -0.858412184770E-001     0.164086740907E-002
     0.254828773361E-001     0.421964700533E-001     0.244185133902E-001    -0.858041504445E-001     0.176588623300E-002
     0.270273242267E-001     0.427325339335E-001     0.247233499293E-001    -0.856552454697E-001     0.189817621053E-002
     0.286644379308E-001     0.432212536254E-001     0.250004747965E-001    -0.853999612336E-001     0.203798565739E-002
     0.303997784571E-001     0.436630855645E-001     0.252501659186E-001    -0.850447298049E-001     0.218556722358E-002
     0.322392394151E-001     0.440590181717E-001     0.254730107990E-001    -0.845968458229E-001     0.234117981863E-002
     0.341890680305E-001     0.444105441276E-001     0.256698901707E-001    -0.840643325683E-001     0.250509085981E-002
     0.362558863628E-001     0.447196181970E-001     0.258419532784E-001    -0.834557898170E-001     0.267757881614E-002
     0.384467137950E-001     0.449886017634E-001     0.259905854749E-001    -0.827802283686E-001     0.285893601130E-002
     0.407689908732E-001     0.452201959561E-001     0.261173692415E-001    -0.820468969386E-001     0.304947163939E-002
     0.432306045761E-001     0.454173659154E-001     0.262240401189E-001    -0.812651076319E-001     0.324951494191E-002
     0.458399151012E-001     0.455832592919E-001     0.263124393544E-001    -0.804440664101E-001     0.345941849107E-002
     0.486057842577E-001     0.457211224470E-001     0.263844652801E-001    -0.795927147952E-001     0.367956152601E-002
     0.515376055637E-001     0.458342179896E-001     0.264420255305E-001    -0.787195884912E-001     0.391035329274E-002
     0.546453361480E-001     0.459257472046E-001     0.264869921552E-001    -0.778326976860E-001     0.415223634780E-002
     0.579395305674E-001     0.459987806036E-001     0.265211614904E-001    -0.769394325672E-001     0.440568979719E-002
     0.614313766519E-001     0.460561992787E-001     0.265462203287E-001    -0.760464961265E-001     0.467123245694E-002
     0.651327335015E-001     0.461006489957E-001     0.265637194929E-001    -0.751598647656E-001     0.494942593720E-002
     0.690561717621E-001     0.461345081014E-001     0.265750554169E-001    -0.742847756582E-001     0.524087766820E-002
     0.732150163183E-001     0.461598694023E-001     0.265814598079E-001    -0.734257384119E-001     0.554624390068E-002
     0.776233915479E-001     0.461785353000E-001     0.265839969563E-001    -0.725865674114E-001     0.586623272645E-002
     0.822962692913E-001     0.461920246999E-001     0.265835678219E-001    -0.717704304084E-001     0.620160717334E-002
     0.872495196992E-001     0.462015896334E-001     0.265809196903E-001    -0.709799084945E-001     0.655318843405E-002
     0.924999651317E-001     0.462082391680E-001     0.265766599881E-001    -0.702170625668E-001     0.692185928948E-002
     0.980654372901E-001     0.462127680589E-001     0.265712727823E-001    -0.694835017337E-001     0.730856778385E-002
     0.103964837778E+000     0.462157876982E-001     0.265651365469E-001    -0.687804497386E-001     0.771433120260E-002
     0.110218202295E+000     0.462177572048E-001     0.265585419544E-001    -0.681088063153E-001     0.814024039531E-002
     0.116846768683E+000     0.462190129177E-001     0.265517086945E-001    -0.674692013112E-001     0.858746447536E-002
     0.123873049055E+000     0.462197950479E-001     0.265448006051E-001    -0.668620403404E-001     0.905725591701E-002
     0.131320906249E+000     0.462202707326E-001     0.265379386901E-001    -0.662875415587E-001     0.955095606026E-002
     0.139215634874E+000     0.462205531893E-001     0.265312118569E-001    -0.657457638338E-001     0.100700010240E-001
     0.147584047217E+000     0.462207170287E-001     0.265246854172E-001    -0.652366270910E-001     0.106159280194E-001
     0.156454564300E+000     0.462208100490E-001     0.265184075477E-001    -0.647599259366E-001     0.111903820487E-001
     0.165857312409E+000     0.462208619968E-001     0.265124140001E-001    -0.643153378243E-001     0.117951229698E-001
     0.175824225404E+000     0.462208909410E-001     0.265066562326E-001    -0.638635663500E-001     0.124316455791E-001
     0.186389153179E+000     0.462209072599E-001     0.265011562573E-001    -0.634470853045E-001     0.131019594529E-001
     0.197587976620E+000     0.462209169600E-001     0.264959307725E-001    -0.630619536915E-001     0.138081791382E-001
     0.209458729468E+000     0.462209233479E-001     0.264910050287E-001    -0.627078631415E-001     0.145525686831E-001
     0.222041727486E+000     0.462209281884E-001     0.264864113832E-001    -0.623863293376E-001     0.153375757416E-001
     0.235379705386E+000     0.462209323958E-001     0.264821815209E-001    -0.620986016050E-001     0.161658455174E-001
     0.249517961959E+000     0.462209364315E-001     0.264783392764E-001    -0.618447069412E-001     0.170402218518E-001
     0.264504513928E+000     0.462209405242E-001     0.264748972361E-001    -0.616234879928E-001     0.179637454571E-001
     0.280390259014E+000     0.462209447880E-001     0.264718565299E-001    -0.614330063837E-001     0.189396545364E-001
     0.297229148805E+000     0.462209492822E-001     0.264692082192E-001    -0.612709136611E-001     0.199713886989E-001
     0.315078371984E+000     0.462209540415E-001     0.264669351547E-001    -0.611346830093E-001     0.210625952999E-001
     0.333998548553E+000     0.462209590907E-001     0.264650138046E-001    -0.610217298116E-001     0.222171372025E-001
     0.354053935717E+000     0.462209644507E-001     0.264634159145E-001    -0.609294723940E-001     0.234391013611E-001
     0.375312646110E+000     0.462209701417E-001     0.264621099964E-001    -0.608553690096E-001     0.247328080267E-001
     0.397846879128E+000     0.462209761845E-001     0.264610626767E-001    -0.607969492220E-001     0.261028206472E-001
     0.421733166126E+000     0.462209826007E-001     0.264602399203E-001    -0.607518462635E-001     0.275539566827E-001
     0.447052630344E+000     0.462209894136E-001     0.264596081356E-001    -0.607178309403E-001     0.290912996306E-001
     0.473891262415E+000     0.462209966478E-001     0.264591351488E-001    -0.606928449722E-001     0.307202125662E-001
     0.502340212410E+000     0.462210043297E-001     0.264587910284E-001    -0.606750307241E-001     0.324463534812E-001
     0.532496099405E+000     0.462210124871E-001     0.264585487344E-001    -0.606627542962E-001     0.342756926446E-001
     0.564461339620E+000     0.462210211501E-001     0.264583845736E-001    -0.606546195150E-001     0.362145321275E-001
     0.598344494248E+000     0.462210303505E-001     0.264582784468E-001    -0.606494713161E-001     0.382695275422E-001
     0.634260638153E+000     0.462210401227E-001     0.264582138895E-001    -0.606463881668E-001     0.404477119470E-001
     0.672331750693E+000     0.462210505030E-001     0.264581779214E-001    -0.606446643936E-001     0.427565217900E-001
     0.712687129985E+000     0.462210615306E-001     0.264581607362E-001    -0.606437843734E-001     0.452038247101E-001
     0.755463832035E+000     0.462210732471E-001     0.264581552740E-001    -0.606433913545E-001     0.477979489934E-001
     0.800807136207E+000     0.462210856973E-001     0.264581567282E-001    -0.606432540713E-001     0.505477145087E-001
     0.848871038630E+000     0.462210989289E-001     0.264581620364E-001    -0.606432342465E-001     0.534624650022E-001
     0.898871038630E+000     0.462211127310E-001     0.264581692614E-001    -0.606432575804E-001     0.564946278812E-001
     0.948871038630E+000     0.462211265707E-001     0.264581771058E-001    -0.606432881161E-001     0.595267922870E-001
     0.998871038630E+000     0.462211404480E-001     0.264581851153E-001    -0.606433142997E-001     0.625589580020E-001
     0.104887103863E+001     0.462211543632E-001     0.264581931425E-001    -0.606433357108E-001     0.655911247875E-001
     0.109887103863E+001     0.462211683163E-001     0.264582011617E-001    -0.606433544599E-001     0.686232925105E-001
     0.114887103863E+001     0.462211823076E-001     0.264582091818E-001    -0.606433722395E-001     0.716554611225E-001
     0.119887103863E+001     0.462211963371E-001     0.264582172146E-001    -0.606433898690E-001     0.746876306159E-001
     0.124887103863E+001     0.462212104051E-001     0.264582252667E-001    -0.606434076028E-001     0.777198009961E-001
     0.129887103863E+001     0.462212245117E-001     0.264582333407E-001    -0.606434254628E-001     0.807519722692E-001
     0.134887103863E+001     0.462212386570E-001     0.264582414373E-001    -0.606434434155E-001     0.837841444400E-001
     0.139887103863E+001     0.462212528412E-001     0.264582495566E-001    -0.606434614337E-001     0.868163175117E-001
     0.144887103863E+001     0.462212670645E-001     0.264582576983E-001    -0.606434795042E-001     0.898484914869E-001
     0.149887103863E+001     0.462212813270E-001     0.264582658625E-001    -0.606434976231E-001     0.928806663680E-001
     0.154887103863E+001     0.462212956288E-001     0.264582740493E-001    -0.606435157901E-001     0.959128421575E-001
     0.159887103863E+001     0.462213099701E-001     0.264582822587E-001    -0.606435340059E-001     0.989450188578E-001
     0.164887103863E+001     0.462213243512E-001     0.264582904907E-001    -0.606435522711E-001     0.101977196471E+000
     0.169887103863E+001     0.462213387721E-001     0.264582987456E-001    -0.606435705861E-001     0.105009375001E+000
     0.174887103863E+001     0.462213532330E-001     0.264583070234E-001    -0.606435889511E-001     0.108041554448E+000
     0.179887103863E+001     0.462213677340E-001     0.264583153242E-001    -0.606436073665E-001     0.111073734817E+000
