 #              _____________________  _______________________             #
 #              ___  __ \__  __ \_  / / /_  /___  ____/_  ___/             #
 #              __  / / /_  /_/ /  / / /_  __/_  __/  _____ \              #
 #              _  /_/ /_  _, _// /_/ / / /_ _  /___  ____/ /              #
 #              /_____/ /_/ |_| \____/  \__/ /_____/  /____/               #
 #                                                                         #
  
 #        time                      c  [M/L^3]                   concetration [M/L^3]       concentration flux [M.L^{-2}.T^{-1}]   in    x              directions   cumulative flux
 #-----------------------------------------------------------------------------------------------

     0.000000000000E+000     0.000000000000E+000     0.000000000000E+000     0.000000000000E+000     0.000000000000E+000
     0.154742504911E-004     0.707881656464E-004     0.411279242406E-004    -0.319986028710E-003     0.495154396190E-008
     0.318769560116E-004     0.145699439982E-003     0.846512729205E-004    -0.608144988331E-003     0.149267671193E-007
     0.492638238634E-004     0.224968889350E-003     0.130702717779E-003    -0.855816761988E-003     0.298067400653E-007
     0.676939037862E-004     0.308843532759E-003     0.179433746760E-003    -0.120179161767E-002     0.519558556295E-007
     0.872297885045E-004     0.397578142654E-003     0.230990375036E-003    -0.161303539263E-002     0.834679291063E-007
     0.107937826306E-003     0.491443045323E-003     0.285528409332E-003    -0.227441783244E-002     0.130566659556E-006
     0.129888346375E-003     0.590723010289E-003     0.343209831847E-003    -0.253467689822E-002     0.186204135680E-006
     0.153155897649E-003     0.695717928152E-003     0.404204465533E-003    -0.265412298341E-002     0.247959078283E-006
     0.177819501999E-003     0.806742667246E-003     0.468702153863E-003    -0.300676102368E-002     0.322116642546E-006
     0.203962922610E-003     0.924126029239E-003     0.536895972526E-003    -0.343751904997E-002     0.411985148928E-006
     0.231674948457E-003     0.104821232216E-002     0.608985498294E-003    -0.390876174398E-002     0.520304855409E-006
     0.261049695856E-003     0.117936226058E-002     0.685180194657E-003    -0.441629578140E-002     0.650032428425E-006
     0.292186928098E-003     0.131795342705E-002     0.765699613714E-003    -0.496461800589E-002     0.804616892269E-006
     0.325192394275E-003     0.146438067931E-002     0.850773402689E-003    -0.555965117309E-002     0.988115771019E-006
     0.360178188423E-003     0.161905655393E-002     0.940641207011E-003    -0.620448655303E-002     0.120518466035E-005
     0.397263130219E-003     0.178241167544E-002     0.103555256602E-002    -0.689392490188E-002     0.146084546409E-005
     0.436573168524E-003     0.195489514331E-002     0.113576706133E-002    -0.760978563146E-002     0.175998642875E-005
     0.478241809126E-003     0.213697483801E-002     0.124155495273E-002    -0.832632252820E-002     0.210693296972E-005
     0.522410568165E-003     0.232913758022E-002     0.135319811919E-002    -0.903288946206E-002     0.250590448779E-005
     0.569229452746E-003     0.253188911055E-002     0.147099072379E-002    -0.975133123305E-002     0.296245093930E-005
     0.618857470402E-003     0.274575391035E-002     0.159523906639E-002    -0.105197804327E-001     0.348452678835E-005
     0.671463169117E-003     0.297127492494E-002     0.172626058368E-002    -0.113657136286E-001     0.408242809518E-005
     0.727225209755E-003     0.320901324629E-002     0.186438261357E-002    -0.122972208253E-001     0.476814622257E-005
     0.786332972831E-003     0.345954775700E-002     0.200994143578E-002    -0.133046063025E-001     0.555455173973E-005
     0.848987201692E-003     0.372347468146E-002     0.216328166995E-002    -0.143592989715E-001     0.645422254377E-005
     0.915400684285E-003     0.400140695749E-002     0.232475627408E-002    -0.154182771447E-001     0.747820402453E-005
     0.985798975833E-003     0.429397330903E-002     0.249472746298E-002    -0.164532606280E-001     0.863648546314E-005
     0.106042116487E-002     0.460181688553E-002     0.267356793493E-002    -0.174845748973E-001     0.994122271642E-005
     0.113952068526E-002     0.492559341365E-002     0.286166041390E-002    -0.185619151193E-001     0.114094612998E-004
     0.122336617686E-002     0.526596898940E-002     0.305939446457E-002    -0.197149055535E-001     0.130624672479E-004
     0.131224239797E-002     0.562361771691E-002     0.326716288085E-002    -0.209417998898E-001     0.149236952852E-004
     0.140645119234E-002     0.599921919283E-002     0.348535982379E-002    -0.222285420973E-001     0.170178194367E-004
     0.150631251437E-002     0.639345561876E-002     0.371438004092E-002    -0.235641095171E-001     0.193709625656E-004
     0.161216551572E-002     0.680700836034E-002     0.395461778446E-002    -0.249447950400E-001     0.220114439887E-004
     0.172436969715E-002     0.724055390630E-002     0.420646487348E-002    -0.263723471212E-001     0.249705316100E-004
     0.184330612947E-002     0.769475924555E-002     0.447030796942E-002    -0.278504025800E-001     0.282829591315E-004
     0.196937874773E-002     0.817027667572E-002     0.474652531983E-002    -0.293818621016E-001     0.319872074160E-004
     0.210301572309E-002     0.866773802961E-002     0.503548317568E-002    -0.309680340523E-001     0.361256818194E-004
     0.224467091697E-002     0.918774828572E-002     0.533753195758E-002    -0.326089654471E-001     0.407449111420E-004
     0.239482542247E-002     0.973087852240E-002     0.565300213883E-002    -0.343040565993E-001     0.458958197976E-004
     0.255398919831E-002     0.102976581813E-001     0.598219977339E-002    -0.360524580101E-001     0.516340651428E-004
     0.272270280070E-002     0.108885666187E-001     0.632540161192E-002    -0.378531849120E-001     0.580204123312E-004
     0.290153921924E-002     0.115040239350E-001     0.668284978221E-002    -0.397050708280E-001     0.651211249957E-004
     0.309110582288E-002     0.121443810895E-001     0.705474603701E-002    -0.416066783547E-001     0.730083617004E-004
     0.329204642275E-002     0.128099093163E-001     0.744124558704E-002    -0.435562243826E-001     0.817605755556E-004
     0.350504345860E-002     0.135007888771E-001     0.784245054544E-002    -0.455515303046E-001     0.914629164892E-004
     0.373082031661E-002     0.142170972019E-001     0.825840301757E-002    -0.475899891632E-001     0.102207634715E-003
     0.397014378610E-002     0.149587964928E-001     0.868907788058E-002    -0.496685405109E-001     0.114094482155E-003
     0.422382666375E-002     0.157257208879E-001     0.913437531044E-002    -0.517836480573E-001     0.127231107009E-003
     0.449273051407E-002     0.165175633169E-001     0.959411313111E-002    -0.539312789019E-001     0.141733435558E-003
     0.477776859541E-002     0.173338622047E-001     0.100680190788E-001    -0.561068849712E-001     0.157726034400E-003
     0.507990896162E-002     0.181739882203E-001     0.105557230952E-001    -0.583053877905E-001     0.175342445620E-003
     0.540017774981E-002     0.190371313029E-001     0.110567497857E-001    -0.605211677167E-001     0.194725486664E-003
     0.573966266529E-002     0.199222882374E-001     0.115705112009E-001    -0.627480586651E-001     0.216027506057E-003
     0.609951667570E-002     0.208282510926E-001     0.120963001255E-001    -0.649793493105E-001     0.239410585500E-003
     0.648096192673E-002     0.217535968771E-001     0.126332840803E-001    -0.672077917384E-001     0.265046678491E-003
     0.688529389283E-002     0.226966788076E-001     0.131805002682E-001    -0.694256185155E-001     0.293117675322E-003
     0.731388577689E-002     0.236556196192E-001     0.137368517154E-001    -0.716245691344E-001     0.323815384353E-003
     0.776819317399E-002     0.246283073832E-001     0.143011048769E-001    -0.737959267345E-001     0.357341419744E-003
     0.824975901492E-002     0.256123943172E-001     0.148718889913E-001    -0.759305659079E-001     0.393906986568E-003
     0.876021880631E-002     0.266053435165E-001     0.154477072906E-001    -0.780330227668E-001     0.433739707091E-003
     0.930130618518E-002     0.276043033479E-001     0.160269130672E-001    -0.800751740225E-001     0.477067373115E-003
     0.987485880678E-002     0.286062483889E-001     0.166077436466E-001    -0.820500804104E-001     0.524127411837E-003
     0.104828245857E-001     0.296079522561E-001     0.171883180517E-001    -0.839495853631E-001     0.575165886891E-003
     0.111272683113E-001     0.306060086784E-001     0.177666505399E-001    -0.857644409940E-001     0.630436242772E-003
     0.118103786605E-001     0.315968580795E-001     0.183406665135E-001    -0.874849580202E-001     0.690198122992E-003
     0.125344756306E-001     0.325768198881E-001     0.189082215020E-001    -0.891014551632E-001     0.754716216709E-003
     0.133020184189E-001     0.335421306050E-001     0.194671234090E-001    -0.906045500822E-001     0.824259085714E-003
     0.141156137746E-001     0.344889874595E-001     0.200151579852E-001    -0.919853716025E-001     0.899097956835E-003
     0.149780248515E-001     0.354135972768E-001     0.205501173189E-001    -0.932357363390E-001     0.979505488623E-003
     0.158921805931E-001     0.363122299324E-001     0.210698309876E-001    -0.943483077804E-001     0.106575453589E-002
     0.168611856792E-001     0.371812755145E-001     0.215721993522E-001    -0.953167435650E-001     0.115811694519E-002
     0.178883310704E-001     0.380173040457E-001     0.220552283267E-001    -0.961358310636E-001     0.125686242100E-002
     0.189771051851E-001     0.388171263499E-001     0.225170647940E-001    -0.968016088738E-001     0.136225750701E-002
     0.201312057467E-001     0.395778544034E-001     0.229560317001E-001    -0.973114707249E-001     0.147456473002E-002
     0.213545523420E-001     0.402969592960E-001     0.233706617351E-001    -0.976642478874E-001     0.159404195516E-002
     0.226512997330E-001     0.409723247737E-001     0.237597284203E-001    -0.978602662016E-001     0.172094200004E-002
     0.240258519675E-001     0.416022942504E-001     0.241222733726E-001    -0.979013741850E-001     0.185551255268E-002
     0.254828773361E-001     0.421857091932E-001     0.244576285307E-001    -0.977909393193E-001     0.199799643208E-002
     0.270273242267E-001     0.427219369056E-001     0.247654321976E-001    -0.975338105326E-001     0.214863222249E-002
     0.286644379308E-001     0.432108859849E-001     0.250456379005E-001    -0.971362460560E-001     0.230765530208E-002
     0.303997784571E-001     0.436530080981E-001     0.252985152888E-001    -0.966058071935E-001     0.247529927438E-002
     0.322392394151E-001     0.440492852207E-001     0.255246425784E-001    -0.959512200363E-001     0.265179779750E-002
     0.341890680305E-001     0.444012020835E-001     0.257248904013E-001    -0.951822086818E-001     0.283738679166E-002
     0.362558863628E-001     0.447107042515E-001     0.259003973187E-001    -0.943093049954E-001     0.303230699214E-002
     0.384467137950E-001     0.449801429885E-001     0.260525376735E-001    -0.933436412499E-001     0.323680680201E-002
     0.407689908732E-001     0.452122087729E-001     0.261828828744E-001    -0.922967330045E-001     0.345114538946E-002
     0.432306045761E-001     0.454098559917E-001     0.262931575867E-001    -0.911802602265E-001     0.367559596747E-002
     0.458399151012E-001     0.455762218801E-001     0.263851926158E-001    -0.900058548536E-001     0.391044919185E-002
     0.486057842577E-001     0.457145431478E-001     0.264608764828E-001    -0.887849026827E-001     0.415601661575E-002
     0.515376055637E-001     0.458280738967E-001     0.265221077871E-001    -0.875283666664E-001     0.441263414602E-002
     0.546453361480E-001     0.459200083591E-001     0.265707503994E-001    -0.862466374237E-001     0.468066545894E-002
     0.579395305674E-001     0.459934116659E-001     0.266085933446E-001    -0.849494151251E-001     0.496050534817E-002
     0.614313766519E-001     0.460511613114E-001     0.266373169124E-001    -0.836456250111E-001     0.525258299635E-002
     0.651327335015E-001     0.460959012460E-001     0.266584661087E-001    -0.823433668034E-001     0.555736518109E-002
     0.690561717621E-001     0.461300096761E-001     0.266734320613E-001    -0.810498963302E-001     0.587535944537E-002
     0.732150163183E-001     0.461555807454E-001     0.266834414726E-001    -0.797716359779E-001     0.620711727940E-002
     0.776233915479E-001     0.461744194006E-001     0.266895537029E-001    -0.785142092260E-001     0.655323737452E-002
     0.822962692913E-001     0.461880479902E-001     0.266926646360E-001    -0.772824936298E-001     0.691436901895E-002
     0.872495196992E-001     0.461977225614E-001     0.266935161389E-001    -0.760806862172E-001     0.729121570900E-002
     0.924999651317E-001     0.462044564592E-001     0.266927097226E-001    -0.749123753698E-001     0.768453904809E-002
     0.980654372901E-001     0.462090487044E-001     0.266907229406E-001    -0.737806137853E-001     0.809516299994E-002
     0.103964837778E+000     0.462121147218E-001     0.266879271148E-001    -0.726879879899E-001     0.852397855175E-002
     0.110218202295E+000     0.462141172707E-001     0.266846051489E-001    -0.716366809393E-001     0.897194883047E-002
     0.116846768683E+000     0.462153958424E-001     0.266809684258E-001    -0.706285254073E-001     0.944011470003E-002
     0.123873049055E+000     0.462161932725E-001     0.266771720682E-001    -0.696650469702E-001     0.992960085213E-002
     0.131320906249E+000     0.462166788038E-001     0.266733281250E-001    -0.687474963827E-001     0.104416223876E-001
     0.139215634874E+000     0.462169672825E-001     0.266695165052E-001    -0.678768719218E-001     0.109774918714E-001
     0.147584047217E+000     0.462171345345E-001     0.266657936919E-001    -0.670539328482E-001     0.115386268307E-001
     0.156454564300E+000     0.462172292331E-001     0.266621994217E-001    -0.662792054866E-001     0.121265576552E-001
     0.165857312409E+000     0.462172817326E-001     0.266587616098E-001    -0.655529836000E-001     0.127429358478E-001
     0.175824225404E+000     0.462173104987E-001     0.266559175823E-001    -0.649180376264E-001     0.133899682806E-001
     0.186389153179E+000     0.462173261994E-001     0.266530096386E-001    -0.643067760837E-001     0.140693647254E-001
     0.197587976620E+000     0.462173349936E-001     0.266501627293E-001    -0.637246259409E-001     0.147830055601E-001
     0.209458729468E+000     0.462173402792E-001     0.266474341533E-001    -0.631765158459E-001     0.155329583655E-001
     0.222041727486E+000     0.462173438717E-001     0.266448558844E-001    -0.626657515406E-001     0.163214813930E-001
     0.235379705386E+000     0.462173467112E-001     0.266424494293E-001    -0.621947674001E-001     0.171510338260E-001
     0.249517961959E+000     0.462173492703E-001     0.266402312001E-001    -0.617654524297E-001     0.180242896399E-001
     0.264504513928E+000     0.462173517805E-001     0.266382135861E-001    -0.613790490897E-001     0.189441499488E-001
     0.280390259014E+000     0.462173543541E-001     0.266364043558E-001    -0.610359435889E-001     0.199137513898E-001
     0.297229148805E+000     0.462173570465E-001     0.266348059583E-001    -0.607355546986E-001     0.209364707017E-001
     0.315078371984E+000     0.462173598870E-001     0.266334153917E-001    -0.604763683441E-001     0.220159268974E-001
     0.333998548553E+000     0.462173628937E-001     0.266322246820E-001    -0.602560766102E-001     0.231559825062E-001
     0.354053935717E+000     0.462173660802E-001     0.266312217516E-001    -0.600717626034E-001     0.243607449628E-001
     0.375312646110E+000     0.462173694585E-001     0.266303914392E-001    -0.599200892875E-001     0.256345687877E-001
     0.397846879128E+000     0.462173730404E-001     0.266297165093E-001    -0.597974717489E-001     0.269820589500E-001
     0.421733166126E+000     0.462173768380E-001     0.266291785747E-001    -0.597002267285E-001     0.284080756995E-001
     0.447052630344E+000     0.462173808638E-001     0.266287589039E-001    -0.596246998880E-001     0.299177411548E-001
     0.473891262415E+000     0.462173851313E-001     0.266284391102E-001    -0.595673728885E-001     0.315164479592E-001
     0.502340212410E+000     0.462173896545E-001     0.266282017233E-001    -0.595249516852E-001     0.332098703331E-001
     0.532496099405E+000     0.462173944482E-001     0.266280306453E-001    -0.594944362130E-001     0.350039778284E-001
     0.564461339620E+000     0.462173995282E-001     0.266279114862E-001    -0.594731707756E-001     0.369050520186E-001
     0.598344494248E+000     0.462174049112E-001     0.266278317793E-001    -0.594588742901E-001     0.389197062502E-001
     0.634260638153E+000     0.462174106149E-001     0.266277810753E-001    -0.594496501259E-001     0.410549084392E-001
     0.672331750693E+000     0.462174166580E-001     0.266277509223E-001    -0.594439764228E-001     0.433180067554E-001
     0.712687129985E+000     0.462174230603E-001     0.266277347459E-001    -0.594406792052E-001     0.457167579101E-001
     0.755463832035E+000     0.462174298428E-001     0.266277276494E-001    -0.594388919905E-001     0.482593576829E-001
     0.800807136207E+000     0.462174370279E-001     0.266277261611E-001    -0.594380066075E-001     0.509544732960E-001
     0.848871038630E+000     0.462174446391E-001     0.266277279554E-001    -0.594376203871E-001     0.538112772825E-001
     0.898871038630E+000     0.462174525517E-001     0.266277314971E-001    -0.594374856769E-001     0.567831515663E-001
     0.948871038630E+000     0.462174604591E-001     0.266277357484E-001    -0.594374591847E-001     0.597550245256E-001
     0.998871038630E+000     0.462174683615E-001     0.266277402566E-001    -0.594374684723E-001     0.627268979492E-001
     0.104887103863E+001     0.462174762591E-001     0.266277448291E-001    -0.594374848402E-001     0.656987721912E-001
     0.109887103863E+001     0.462174841519E-001     0.266277494010E-001    -0.594374997763E-001     0.686706471800E-001
     0.114887103863E+001     0.462174920401E-001     0.266277539592E-001    -0.594375122986E-001     0.716425227949E-001
     0.119887103863E+001     0.462174999238E-001     0.266277585065E-001    -0.594375233238E-001     0.746143989611E-001
     0.124887103863E+001     0.462175078033E-001     0.266277630472E-001    -0.594375337245E-001     0.775862756474E-001
     0.129887103863E+001     0.462175156787E-001     0.266277675843E-001    -0.594375439608E-001     0.805581528454E-001
     0.134887103863E+001     0.462175235501E-001     0.266277721190E-001    -0.594375541958E-001     0.835300305552E-001
     0.139887103863E+001     0.462175314177E-001     0.266277766516E-001    -0.594375644578E-001     0.865019087781E-001
     0.144887103863E+001     0.462175392816E-001     0.266277811822E-001    -0.594375747355E-001     0.894737875148E-001
     0.149887103863E+001     0.462175471419E-001     0.266277857108E-001    -0.594375850156E-001     0.924456667656E-001
     0.154887103863E+001     0.462175549989E-001     0.266277902375E-001    -0.594375952910E-001     0.954175465302E-001
     0.159887103863E+001     0.462175628526E-001     0.266277947624E-001    -0.594376055590E-001     0.983894268081E-001
     0.164887103863E+001     0.462175707032E-001     0.266277992855E-001    -0.594376158195E-001     0.101361307599E+000
     0.169887103863E+001     0.462175785509E-001     0.266278038068E-001    -0.594376260727E-001     0.104333188903E+000
     0.174887103863E+001     0.462175863958E-001     0.266278083266E-001    -0.594376363190E-001     0.107305070719E+000
     0.179887103863E+001     0.462175942380E-001     0.266278128448E-001    -0.594376465588E-001     0.110276953047E+000
