 #              _____________________  _______________________             #
 #              ___  __ \__  __ \_  / / /_  /___  ____/_  ___/             #
 #              __  / / /_  /_/ /  / / /_  __/_  __/  _____ \              #
 #              _  /_/ /_  _, _// /_/ / / /_ _  /___  ____/ /              #
 #              /_____/ /_/ |_| \____/  \__/ /_____/  /____/               #
 #                                                                         #
  
 #        time                      c  [M/M]                   concetration [M/M]       zero flux   in    x              directions   cumulative flux
 #-----------------------------------------------------------------------------------------------

     0.000000000000E+000     0.513980587441E-003     0.000000000000E+000     0.000000000000E+000     0.000000000000E+000
     0.154742504911E-004     0.513901174621E-003     0.000000000000E+000     0.000000000000E+000     0.000000000000E+000
     0.318769560116E-004     0.513817133696E-003     0.000000000000E+000     0.000000000000E+000     0.000000000000E+000
     0.492638238634E-004     0.513728203603E-003     0.000000000000E+000     0.000000000000E+000     0.000000000000E+000
     0.676939037862E-004     0.513634109625E-003     0.000000000000E+000     0.000000000000E+000     0.000000000000E+000
     0.872297885045E-004     0.513534562804E-003     0.000000000000E+000     0.000000000000E+000     0.000000000000E+000
     0.107937826306E-003     0.513429259355E-003     0.000000000000E+000     0.000000000000E+000     0.000000000000E+000
     0.129888346375E-003     0.513317880076E-003     0.000000000000E+000     0.000000000000E+000     0.000000000000E+000
     0.153155897649E-003     0.513200089752E-003     0.000000000000E+000     0.000000000000E+000     0.000000000000E+000
     0.177819501999E-003     0.513075536560E-003     0.000000000000E+000     0.000000000000E+000     0.000000000000E+000
     0.203962922610E-003     0.512943851487E-003     0.000000000000E+000     0.000000000000E+000     0.000000000000E+000
     0.231674948457E-003     0.512804647752E-003     0.000000000000E+000     0.000000000000E+000     0.000000000000E+000
     0.261049695856E-003     0.512657520257E-003     0.000000000000E+000     0.000000000000E+000     0.000000000000E+000
     0.292186928098E-003     0.512502045051E-003     0.000000000000E+000     0.000000000000E+000     0.000000000000E+000
     0.325192394275E-003     0.512337778832E-003     0.000000000000E+000     0.000000000000E+000     0.000000000000E+000
     0.360178188423E-003     0.512164258485E-003     0.000000000000E+000     0.000000000000E+000     0.000000000000E+000
     0.397263130219E-003     0.511981000674E-003     0.000000000000E+000     0.000000000000E+000     0.000000000000E+000
     0.436573168524E-003     0.511787501489E-003     0.000000000000E+000     0.000000000000E+000     0.000000000000E+000
     0.478241809126E-003     0.511583236168E-003     0.000000000000E+000     0.000000000000E+000     0.000000000000E+000
     0.522410568165E-003     0.511367658908E-003     0.000000000000E+000     0.000000000000E+000     0.000000000000E+000
     0.569229452746E-003     0.511140202770E-003     0.000000000000E+000     0.000000000000E+000     0.000000000000E+000
     0.618857470402E-003     0.510900279709E-003     0.000000000000E+000     0.000000000000E+000     0.000000000000E+000
     0.671463169117E-003     0.510647280735E-003     0.000000000000E+000     0.000000000000E+000     0.000000000000E+000
     0.727225209755E-003     0.510380576235E-003     0.000000000000E+000     0.000000000000E+000     0.000000000000E+000
     0.786332972831E-003     0.510099516471E-003     0.000000000000E+000     0.000000000000E+000     0.000000000000E+000
     0.848987201692E-003     0.509803432283E-003     0.000000000000E+000     0.000000000000E+000     0.000000000000E+000
     0.915400684285E-003     0.509491636019E-003     0.000000000000E+000     0.000000000000E+000     0.000000000000E+000
     0.985798975833E-003     0.509163422729E-003     0.000000000000E+000     0.000000000000E+000     0.000000000000E+000
     0.106042116487E-002     0.508818071642E-003     0.000000000000E+000     0.000000000000E+000     0.000000000000E+000
     0.113952068526E-002     0.508454847971E-003     0.000000000000E+000     0.000000000000E+000     0.000000000000E+000
     0.122336617686E-002     0.508073005072E-003     0.000000000000E+000     0.000000000000E+000     0.000000000000E+000
     0.131224239797E-002     0.507671786999E-003     0.000000000000E+000     0.000000000000E+000     0.000000000000E+000
     0.140645119234E-002     0.507250431494E-003     0.000000000000E+000     0.000000000000E+000     0.000000000000E+000
     0.150631251437E-002     0.506808173448E-003     0.000000000000E+000     0.000000000000E+000     0.000000000000E+000
     0.161216551572E-002     0.506344248880E-003     0.000000000000E+000     0.000000000000E+000     0.000000000000E+000
     0.172436969715E-002     0.505857899475E-003     0.000000000000E+000     0.000000000000E+000     0.000000000000E+000
     0.184330612947E-002     0.505348377720E-003     0.000000000000E+000     0.000000000000E+000     0.000000000000E+000
     0.196937874773E-002     0.504814952679E-003     0.000000000000E+000     0.000000000000E+000     0.000000000000E+000
     0.210301572309E-002     0.504256916459E-003     0.000000000000E+000     0.000000000000E+000     0.000000000000E+000
     0.224467091697E-002     0.503673591382E-003     0.000000000000E+000     0.000000000000E+000     0.000000000000E+000
     0.239482542247E-002     0.503064337917E-003     0.000000000000E+000     0.000000000000E+000     0.000000000000E+000
     0.255398919831E-002     0.502428563383E-003     0.000000000000E+000     0.000000000000E+000     0.000000000000E+000
     0.272270280070E-002     0.501765731455E-003     0.000000000000E+000     0.000000000000E+000     0.000000000000E+000
     0.290153921924E-002     0.501075372464E-003     0.000000000000E+000     0.000000000000E+000     0.000000000000E+000
     0.309110582288E-002     0.500357094512E-003     0.000000000000E+000     0.000000000000E+000     0.000000000000E+000
     0.329204642275E-002     0.499610595353E-003     0.000000000000E+000     0.000000000000E+000     0.000000000000E+000
     0.350504345860E-002     0.498835675037E-003     0.000000000000E+000     0.000000000000E+000     0.000000000000E+000
     0.373082031661E-002     0.498032249225E-003     0.000000000000E+000     0.000000000000E+000     0.000000000000E+000
     0.397014378610E-002     0.497200363115E-003     0.000000000000E+000     0.000000000000E+000     0.000000000000E+000
     0.422382666375E-002     0.496340205857E-003     0.000000000000E+000     0.000000000000E+000     0.000000000000E+000
     0.449273051407E-002     0.495452125318E-003     0.000000000000E+000     0.000000000000E+000     0.000000000000E+000
     0.477776859541E-002     0.494536643005E-003     0.000000000000E+000     0.000000000000E+000     0.000000000000E+000
     0.507990896162E-002     0.493594468943E-003     0.000000000000E+000     0.000000000000E+000     0.000000000000E+000
     0.540017774981E-002     0.492626516233E-003     0.000000000000E+000     0.000000000000E+000     0.000000000000E+000
     0.573966266529E-002     0.491633914990E-003     0.000000000000E+000     0.000000000000E+000     0.000000000000E+000
     0.609951667570E-002     0.490618025303E-003     0.000000000000E+000     0.000000000000E+000     0.000000000000E+000
     0.648096192673E-002     0.489580448824E-003     0.000000000000E+000     0.000000000000E+000     0.000000000000E+000
     0.688529389283E-002     0.488523038535E-003     0.000000000000E+000     0.000000000000E+000     0.000000000000E+000
     0.731388577689E-002     0.487447906214E-003     0.000000000000E+000     0.000000000000E+000     0.000000000000E+000
     0.776819317399E-002     0.486357427072E-003     0.000000000000E+000     0.000000000000E+000     0.000000000000E+000
     0.824975901492E-002     0.485254241022E-003     0.000000000000E+000     0.000000000000E+000     0.000000000000E+000
     0.876021880631E-002     0.484141254377E-003     0.000000000000E+000     0.000000000000E+000     0.000000000000E+000
     0.930130618518E-002     0.483021624421E-003     0.000000000000E+000     0.000000000000E+000     0.000000000000E+000
     0.987485880678E-002     0.481898751101E-003     0.000000000000E+000     0.000000000000E+000     0.000000000000E+000
     0.104828245857E-001     0.480776259281E-003     0.000000000000E+000     0.000000000000E+000     0.000000000000E+000
     0.111272683113E-001     0.479657975044E-003     0.000000000000E+000     0.000000000000E+000     0.000000000000E+000
     0.118103786605E-001     0.478547895707E-003     0.000000000000E+000     0.000000000000E+000     0.000000000000E+000
     0.125344756306E-001     0.477450153381E-003     0.000000000000E+000     0.000000000000E+000     0.000000000000E+000
     0.133020184189E-001     0.476368972046E-003     0.000000000000E+000     0.000000000000E+000     0.000000000000E+000
     0.141156137746E-001     0.475308618358E-003     0.000000000000E+000     0.000000000000E+000     0.000000000000E+000
     0.149780248515E-001     0.474273346601E-003     0.000000000000E+000     0.000000000000E+000     0.000000000000E+000
     0.158921805931E-001     0.473267338506E-003     0.000000000000E+000     0.000000000000E+000     0.000000000000E+000
     0.168611856792E-001     0.472294638932E-003     0.000000000000E+000     0.000000000000E+000     0.000000000000E+000
     0.178883310704E-001     0.471359088705E-003     0.000000000000E+000     0.000000000000E+000     0.000000000000E+000
     0.189771051851E-001     0.470464256212E-003     0.000000000000E+000     0.000000000000E+000     0.000000000000E+000
     0.201312057467E-001     0.469613369637E-003     0.000000000000E+000     0.000000000000E+000     0.000000000000E+000
     0.213545523420E-001     0.468809251940E-003     0.000000000000E+000     0.000000000000E+000     0.000000000000E+000
     0.226512997330E-001     0.468054260873E-003     0.000000000000E+000     0.000000000000E+000     0.000000000000E+000
     0.240258519675E-001     0.467350236417E-003     0.000000000000E+000     0.000000000000E+000     0.000000000000E+000
     0.254828773361E-001     0.466698457987E-003     0.000000000000E+000     0.000000000000E+000     0.000000000000E+000
     0.270273242267E-001     0.466099613625E-003     0.000000000000E+000     0.000000000000E+000     0.000000000000E+000
     0.286644379308E-001     0.465553783125E-003     0.000000000000E+000     0.000000000000E+000     0.000000000000E+000
     0.303997784571E-001     0.465060436582E-003     0.000000000000E+000     0.000000000000E+000     0.000000000000E+000
     0.322392394151E-001     0.464618449315E-003     0.000000000000E+000     0.000000000000E+000     0.000000000000E+000
     0.341890680305E-001     0.464226133444E-003     0.000000000000E+000     0.000000000000E+000     0.000000000000E+000
     0.362558863628E-001     0.463881285589E-003     0.000000000000E+000     0.000000000000E+000     0.000000000000E+000
     0.384467137950E-001     0.463581249380E-003     0.000000000000E+000     0.000000000000E+000     0.000000000000E+000
     0.407689908732E-001     0.463322990656E-003     0.000000000000E+000     0.000000000000E+000     0.000000000000E+000
     0.432306045761E-001     0.463103182457E-003     0.000000000000E+000     0.000000000000E+000     0.000000000000E+000
     0.458399151012E-001     0.462918296359E-003     0.000000000000E+000     0.000000000000E+000     0.000000000000E+000
     0.486057842577E-001     0.462764696247E-003     0.000000000000E+000     0.000000000000E+000     0.000000000000E+000
     0.515376055637E-001     0.462638730466E-003     0.000000000000E+000     0.000000000000E+000     0.000000000000E+000
     0.546453361480E-001     0.462536818392E-003     0.000000000000E+000     0.000000000000E+000     0.000000000000E+000
     0.579395305674E-001     0.462455527805E-003     0.000000000000E+000     0.000000000000E+000     0.000000000000E+000
     0.614313766519E-001     0.462391640116E-003     0.000000000000E+000     0.000000000000E+000     0.000000000000E+000
     0.651327335015E-001     0.462342201292E-003     0.000000000000E+000     0.000000000000E+000     0.000000000000E+000
     0.690561717621E-001     0.462304557314E-003     0.000000000000E+000     0.000000000000E+000     0.000000000000E+000
     0.732150163183E-001     0.462276374025E-003     0.000000000000E+000     0.000000000000E+000     0.000000000000E+000
     0.776233915479E-001     0.462255642193E-003     0.000000000000E+000     0.000000000000E+000     0.000000000000E+000
     0.822962692913E-001     0.462240669453E-003     0.000000000000E+000     0.000000000000E+000     0.000000000000E+000
     0.872495196992E-001     0.462230061475E-003     0.000000000000E+000     0.000000000000E+000     0.000000000000E+000
     0.924999651317E-001     0.462222695044E-003     0.000000000000E+000     0.000000000000E+000     0.000000000000E+000
     0.980654372901E-001     0.462217685916E-003     0.000000000000E+000     0.000000000000E+000     0.000000000000E+000
     0.103964837778E+000     0.462214354177E-003     0.000000000000E+000     0.000000000000E+000     0.000000000000E+000
     0.110218202295E+000     0.462212189488E-003     0.000000000000E+000     0.000000000000E+000     0.000000000000E+000
     0.116846768683E+000     0.462210818166E-003     0.000000000000E+000     0.000000000000E+000     0.000000000000E+000
     0.123873049055E+000     0.462209973458E-003     0.000000000000E+000     0.000000000000E+000     0.000000000000E+000
     0.131320906249E+000     0.462209469854E-003     0.000000000000E+000     0.000000000000E+000     0.000000000000E+000
     0.139215634874E+000     0.462209181769E-003     0.000000000000E+000     0.000000000000E+000     0.000000000000E+000
     0.147584047217E+000     0.462209026498E-003     0.000000000000E+000     0.000000000000E+000     0.000000000000E+000
     0.156454564300E+000     0.462208951113E-003     0.000000000000E+000     0.000000000000E+000     0.000000000000E+000
     0.165857312409E+000     0.462208922719E-003     0.000000000000E+000     0.000000000000E+000     0.000000000000E+000
     0.175824225404E+000     0.462208921583E-003     0.000000000000E+000     0.000000000000E+000     0.000000000000E+000
     0.186389153179E+000     0.462208936088E-003     0.000000000000E+000     0.000000000000E+000     0.000000000000E+000
     0.197587976620E+000     0.462208959683E-003     0.000000000000E+000     0.000000000000E+000     0.000000000000E+000
     0.209458729468E+000     0.462208988819E-003     0.000000000000E+000     0.000000000000E+000     0.000000000000E+000
     0.222041727486E+000     0.462209021661E-003     0.000000000000E+000     0.000000000000E+000     0.000000000000E+000
     0.235379705386E+000     0.462209057328E-003     0.000000000000E+000     0.000000000000E+000     0.000000000000E+000
     0.249517961959E+000     0.462209095450E-003     0.000000000000E+000     0.000000000000E+000     0.000000000000E+000
     0.264504513928E+000     0.462209135928E-003     0.000000000000E+000     0.000000000000E+000     0.000000000000E+000
     0.280390259014E+000     0.462209178797E-003     0.000000000000E+000     0.000000000000E+000     0.000000000000E+000
     0.297229148805E+000     0.462209224166E-003     0.000000000000E+000     0.000000000000E+000     0.000000000000E+000
     0.315078371984E+000     0.462209272183E-003     0.000000000000E+000     0.000000000000E+000     0.000000000000E+000
     0.333998548553E+000     0.462209323015E-003     0.000000000000E+000     0.000000000000E+000     0.000000000000E+000
     0.354053935717E+000     0.462209376851E-003     0.000000000000E+000     0.000000000000E+000     0.000000000000E+000
     0.375312646110E+000     0.462209433889E-003     0.000000000000E+000     0.000000000000E+000     0.000000000000E+000
     0.397846879128E+000     0.462209494344E-003     0.000000000000E+000     0.000000000000E+000     0.000000000000E+000
     0.421733166126E+000     0.462209558442E-003     0.000000000000E+000     0.000000000000E+000     0.000000000000E+000
     0.447052630344E+000     0.462209626423E-003     0.000000000000E+000     0.000000000000E+000     0.000000000000E+000
     0.473891262415E+000     0.462209698544E-003     0.000000000000E+000     0.000000000000E+000     0.000000000000E+000
     0.502340212410E+000     0.462209775074E-003     0.000000000000E+000     0.000000000000E+000     0.000000000000E+000
     0.532496099405E+000     0.462209856301E-003     0.000000000000E+000     0.000000000000E+000     0.000000000000E+000
     0.564461339620E+000     0.462209942530E-003     0.000000000000E+000     0.000000000000E+000     0.000000000000E+000
     0.598344494248E+000     0.462210034086E-003     0.000000000000E+000     0.000000000000E+000     0.000000000000E+000
     0.634260638153E+000     0.462210131313E-003     0.000000000000E+000     0.000000000000E+000     0.000000000000E+000
     0.672331750693E+000     0.462210234580E-003     0.000000000000E+000     0.000000000000E+000     0.000000000000E+000
     0.712687129985E+000     0.462210344277E-003     0.000000000000E+000     0.000000000000E+000     0.000000000000E+000
     0.755463832035E+000     0.462210460822E-003     0.000000000000E+000     0.000000000000E+000     0.000000000000E+000
     0.800807136207E+000     0.462210584662E-003     0.000000000000E+000     0.000000000000E+000     0.000000000000E+000
     0.848871038630E+000     0.462210716273E-003     0.000000000000E+000     0.000000000000E+000     0.000000000000E+000
     0.898871038630E+000     0.462210853556E-003     0.000000000000E+000     0.000000000000E+000     0.000000000000E+000
     0.948871038630E+000     0.462210991212E-003     0.000000000000E+000     0.000000000000E+000     0.000000000000E+000
     0.998871038630E+000     0.462211129242E-003     0.000000000000E+000     0.000000000000E+000     0.000000000000E+000
     0.104887103863E+001     0.462211267646E-003     0.000000000000E+000     0.000000000000E+000     0.000000000000E+000
     0.109887103863E+001     0.462211406428E-003     0.000000000000E+000     0.000000000000E+000     0.000000000000E+000
     0.114887103863E+001     0.462211545588E-003     0.000000000000E+000     0.000000000000E+000     0.000000000000E+000
     0.119887103863E+001     0.462211685128E-003     0.000000000000E+000     0.000000000000E+000     0.000000000000E+000
     0.124887103863E+001     0.462211825049E-003     0.000000000000E+000     0.000000000000E+000     0.000000000000E+000
     0.129887103863E+001     0.462211965353E-003     0.000000000000E+000     0.000000000000E+000     0.000000000000E+000
     0.134887103863E+001     0.462212106042E-003     0.000000000000E+000     0.000000000000E+000     0.000000000000E+000
     0.139887103863E+001     0.462212247116E-003     0.000000000000E+000     0.000000000000E+000     0.000000000000E+000
     0.144887103863E+001     0.462212388578E-003     0.000000000000E+000     0.000000000000E+000     0.000000000000E+000
     0.149887103863E+001     0.462212530429E-003     0.000000000000E+000     0.000000000000E+000     0.000000000000E+000
     0.154887103863E+001     0.462212672670E-003     0.000000000000E+000     0.000000000000E+000     0.000000000000E+000
     0.159887103863E+001     0.462212815304E-003     0.000000000000E+000     0.000000000000E+000     0.000000000000E+000
     0.164887103863E+001     0.462212958331E-003     0.000000000000E+000     0.000000000000E+000     0.000000000000E+000
     0.169887103863E+001     0.462213101754E-003     0.000000000000E+000     0.000000000000E+000     0.000000000000E+000
     0.174887103863E+001     0.462213245573E-003     0.000000000000E+000     0.000000000000E+000     0.000000000000E+000
     0.179887103863E+001     0.462213389791E-003     0.000000000000E+000     0.000000000000E+000     0.000000000000E+000
