 #              _____________________  _______________________             #
 #              ___  __ \__  __ \_  / / /_  /___  ____/_  ___/             #
 #              __  / / /_  /_/ /  / / /_  __/_  __/  _____ \              #
 #              _  /_/ /_  _, _// /_/ / / /_ _  /___  ____/ /              #
 #              /_____/ /_/ |_| \____/  \__/ /_____/  /____/               #
 #                                                                         #
  
 #        time                      c  [M/L^3]                   concetration [M/L^3]       concentration flux [M.L^{-2}.T^{-1}]   in    x              directions   cumulative flux
 #-----------------------------------------------------------------------------------------------

     0.000000000000E+000     0.000000000000E+000     0.000000000000E+000     0.000000000000E+000     0.000000000000E+000
     0.100000000000E+000     0.196367557603E-006     0.111929507834E-006     0.569465917048E-009     0.569465917048E-010
     0.206000000000E+000     0.404444920344E-006     0.230533604596E-006     0.117289026900E-008     0.181272960218E-009
     0.318360000000E+000     0.624925776507E-006     0.356207692609E-006     0.181228475187E-008     0.384901274938E-009
     0.437461600000E+000     0.858544341320E-006     0.489370274552E-006     0.248977858982E-008     0.681437888632E-009
     0.563709296000E+000     0.110607765439E-005     0.630464263004E-006     0.320762519774E-008     0.108639317948E-008
     0.697531853760E+000     0.136834799863E-005     0.779958359218E-006     0.396820919602E-008     0.161742908382E-008
     0.839383764986E+000     0.164622544589E-005     0.938348504159E-006     0.477405379309E-008     0.229463773866E-008
     0.989746790885E+000     0.194063053485E-005     0.110615940486E-005     0.562782855106E-008     0.314085506884E-008
     0.114913159834E+001     0.225253708638E-005     0.128394613924E-005     0.653235755050E-008     0.418201361924E-008
     0.131807949424E+001     0.258297516208E-005     0.147229584239E-005     0.749062797003E-008     0.544753945375E-008
     0.149716426389E+001     0.293303417126E-005     0.167182947762E-005     0.850579909666E-008     0.697079852570E-008
     0.168699411973E+001     0.330386613193E-005     0.188320369520E-005     0.958121178259E-008     0.878959857710E-008
     0.188821376691E+001     0.369668909102E-005     0.210711278188E-005     0.107203983639E-007     0.109467533536E-007
     0.210150659292E+001     0.411279070913E-005     0.234429070421E-005     0.119270930565E-007     0.134907167377E-007
     0.232759698850E+001     0.455353201475E-005     0.259551324841E-005     0.132052428428E-007     0.164762953157E-007
     0.256725280781E+001     0.502035133258E-005     0.286160025957E-005     0.145590188645E-007     0.199654489100E-007
     0.282128797628E+001     0.551476839050E-005     0.314341798258E-005     0.159928283324E-007     0.240281897497E-007
     0.309056525485E+001     0.603838860890E-005     0.344188150708E-005     0.175113269658E-007     0.287435922194E-007
     0.337599917015E+001     0.659290757592E-005     0.375795731828E-005     0.191194319702E-007     0.342009265448E-007
     0.367855912035E+001     0.718011571104E-005     0.409266595529E-005     0.208223355620E-007     0.405009313556E-007
     0.399927266758E+001     0.780190311908E-005     0.444708477788E-005     0.226255190453E-007     0.477572418264E-007
     0.433922902763E+001     0.846026463544E-005     0.482235084220E-005     0.245347674428E-007     0.560979920610E-007
     0.469958276929E+001     0.915730506219E-005     0.521966388545E-005     0.265561846803E-007     0.656676125747E-007
     0.508155773545E+001     0.989524459353E-005     0.564028941831E-005     0.286962093212E-007     0.766288461590E-007
     0.548645119957E+001     0.106764244274E-004     0.608556192362E-005     0.309616308395E-007     0.891650081247E-007
     0.591563827155E+001     0.115033125581E-004     0.655688815811E-005     0.333596064184E-007     0.103482519926E-006
     0.637057656784E+001     0.123785097428E-004     0.705575055341E-005     0.358976782542E-007     0.119813748511E-006
     0.685281116191E+001     0.133047556328E-004     0.758371071067E-005     0.385837913350E-007     0.138420187464E-006
     0.736397983162E+001     0.142849350559E-004     0.814241298187E-005     0.414263116621E-007     0.159596020087E-006
     0.790581862152E+001     0.153220844367E-004     0.873358812890E-005     0.444340448663E-007     0.183672109188E-006
     0.848016773881E+001     0.164193983326E-004     0.935905704959E-005     0.476162551646E-007     0.211020463310E-006
     0.908897780314E+001     0.175802360656E-004     0.100207345574E-004     0.509826845902E-007     0.242059234795E-006
     0.973431647133E+001     0.188081284192E-004     0.107206331989E-004     0.545435724157E-007     0.277258311176E-006
     0.104183754596E+002     0.201067843696E-004     0.114608670906E-004     0.583096746717E-007     0.317145568239E-006
     0.111434779872E+002     0.214800978108E-004     0.122436557522E-004     0.622922836514E-007     0.362313860563E-006
     0.119120866664E+002     0.229321542301E-004     0.130713279112E-004     0.665032472673E-007     0.413428833610E-006
     0.127268118664E+002     0.244672372788E-004     0.139463252489E-004     0.709549881086E-007     0.471237650487E-006
     0.135904205784E+002     0.260898351807E-004     0.148712060530E-004     0.756605220241E-007     0.536578736460E-006
     0.145058458131E+002     0.278046469060E-004     0.158486487364E-004     0.806334760273E-007     0.610392655177E-006
     0.154761965619E+002     0.296165880325E-004     0.168814551785E-004     0.858881052942E-007     0.693734242461E-006
     0.164761965619E+002     0.314777967021E-004     0.179423441202E-004     0.912856104361E-007     0.785019852897E-006
     0.174761965619E+002     0.333329286152E-004     0.189997693107E-004     0.966654929840E-007     0.881685345881E-006
     0.184761965619E+002     0.351820036121E-004     0.200537420589E-004     0.102027810475E-006     0.983713156356E-006
     0.194761965619E+002     0.370250414683E-004     0.211042736369E-004     0.107372620258E-006     0.109108577661E-005
     0.204761965619E+002     0.388620618949E-004     0.221513752801E-004     0.112699979495E-006     0.120378575611E-005
     0.214761965619E+002     0.406930845384E-004     0.231950581869E-004     0.118009945161E-006     0.132179570127E-005
     0.224761965619E+002     0.425181289813E-004     0.242353335193E-004     0.123302574046E-006     0.144509827532E-005
     0.234761965619E+002     0.443372147421E-004     0.252722124030E-004     0.128577922752E-006     0.157367619807E-005
     0.244761965619E+002     0.461503612757E-004     0.263057059272E-004     0.133836047700E-006     0.170751224577E-005
     0.254761965619E+002     0.479575879734E-004     0.273358251448E-004     0.139077005123E-006     0.184658925089E-005
     0.264761965619E+002     0.497589141631E-004     0.283625810730E-004     0.144300851073E-006     0.199089010196E-005
     0.274761965619E+002     0.515543591097E-004     0.293859846925E-004     0.149507641418E-006     0.214039774338E-005
     0.284761965619E+002     0.533439420151E-004     0.304060469486E-004     0.154697431844E-006     0.229509517523E-005
     0.294761965619E+002     0.551276820187E-004     0.314227787507E-004     0.159870277854E-006     0.245496545308E-005
     0.304761965619E+002     0.569055981973E-004     0.324361909725E-004     0.165026234772E-006     0.261999168785E-005
     0.314761965619E+002     0.586777095653E-004     0.334462944522E-004     0.170165357739E-006     0.279015704559E-005
     0.324761965619E+002     0.604440350752E-004     0.344530999929E-004     0.175287701718E-006     0.296544474731E-005
     0.334761965619E+002     0.622045936175E-004     0.354566183620E-004     0.180393321491E-006     0.314583806880E-005
     0.344761965619E+002     0.639594040212E-004     0.364568602921E-004     0.185482271661E-006     0.333132034046E-005
     0.354761965619E+002     0.657084850535E-004     0.374538364805E-004     0.190554606655E-006     0.352187494712E-005
     0.364761965619E+002     0.674518554206E-004     0.384475575898E-004     0.195610380720E-006     0.371748532784E-005
     0.374761965619E+002     0.691895337676E-004     0.394380342475E-004     0.200649647926E-006     0.391813497576E-005
     0.384761965619E+002     0.709215386787E-004     0.404252770468E-004     0.205672462168E-006     0.412380743793E-005
     0.394761965619E+002     0.726478886772E-004     0.414092965460E-004     0.210678877164E-006     0.433448631510E-005
     0.404761965619E+002     0.743686022263E-004     0.423901032690E-004     0.215668946456E-006     0.455015526155E-005
     0.414761965619E+002     0.760836977287E-004     0.433677077054E-004     0.220642723413E-006     0.477079798497E-005
     0.424761965619E+002     0.777931935271E-004     0.443421203104E-004     0.225600261228E-006     0.499639824619E-005
     0.434761965619E+002     0.794971079041E-004     0.453133515053E-004     0.230541612922E-006     0.522693985912E-005
     0.444761965619E+002     0.811954590829E-004     0.462814116772E-004     0.235466831340E-006     0.546240669046E-005
     0.454761965619E+002     0.828882652270E-004     0.472463111794E-004     0.240375969158E-006     0.570278265961E-005
     0.464761965619E+002     0.845755444408E-004     0.482080603312E-004     0.245269078878E-006     0.594805173849E-005
     0.474761965619E+002     0.862573147693E-004     0.491666694185E-004     0.250146212831E-006     0.619819795132E-005
     0.484761965619E+002     0.879335941988E-004     0.501221486933E-004     0.255007423177E-006     0.645320537450E-005
     0.494761965619E+002     0.896044006569E-004     0.510745083744E-004     0.259852761905E-006     0.671305813640E-005
     0.504761965619E+002     0.912697520125E-004     0.520237586471E-004     0.264682280836E-006     0.697774041724E-005
     0.514761965619E+002     0.929296660762E-004     0.529699096635E-004     0.269496031621E-006     0.724723644886E-005
     0.524761965619E+002     0.945841606007E-004     0.539129715424E-004     0.274294065742E-006     0.752153051460E-005
     0.534761965619E+002     0.962332532803E-004     0.548529543698E-004     0.279076434513E-006     0.780060694912E-005
     0.544761965619E+002     0.978769617519E-004     0.557898681986E-004     0.283843189081E-006     0.808445013820E-005
     0.554761965619E+002     0.995153035947E-004     0.567237230490E-004     0.288594380425E-006     0.837304451862E-005
     0.564761965619E+002     0.101148296330E-003     0.576545289083E-004     0.293330059358E-006     0.866637457798E-005
     0.574761965619E+002     0.102775957424E-003     0.585822957314E-004     0.298050276528E-006     0.896442485451E-005
     0.584761965619E+002     0.104398304282E-003     0.595070334406E-004     0.302755082417E-006     0.926717993693E-005
     0.594761965619E+002     0.106015354256E-003     0.604287519258E-004     0.307444527342E-006     0.957462446427E-005
     0.604761965619E+002     0.107627124640E-003     0.613474610446E-004     0.312118661455E-006     0.988674312572E-005
     0.614761965619E+002     0.109233632671E-003     0.622631706225E-004     0.316777534746E-006     0.102035206605E-004
     0.624761965619E+002     0.110834895531E-003     0.631758904527E-004     0.321421197040E-006     0.105249418575E-004
     0.634761965619E+002     0.112430930345E-003     0.640856302968E-004     0.326049698001E-006     0.108509915555E-004
     0.644761965619E+002     0.114021754183E-003     0.649923998841E-004     0.330663087130E-006     0.111816546426E-004
     0.654761965619E+002     0.115607384057E-003     0.658962089126E-004     0.335261413766E-006     0.115169160564E-004
     0.664761965619E+002     0.117187836926E-003     0.667970670481E-004     0.339844727087E-006     0.118567607835E-004
     0.674761965619E+002     0.118763129693E-003     0.676949839253E-004     0.344413076111E-006     0.122011738596E-004
     0.684761965619E+002     0.120333279206E-003     0.685899691472E-004     0.348966509696E-006     0.125501403693E-004
     0.694761965619E+002     0.121898302255E-003     0.694820322855E-004     0.353505076540E-006     0.129036454458E-004
     0.704761965619E+002     0.123458215580E-003     0.703711828807E-004     0.358028825183E-006     0.132616742710E-004
     0.714761965619E+002     0.125013035863E-003     0.712574304422E-004     0.362537804004E-006     0.136242120750E-004
     0.724761965619E+002     0.126562779733E-003     0.721407844481E-004     0.367032061227E-006     0.139912441363E-004
     0.734761965619E+002     0.128107463764E-003     0.730212543458E-004     0.371511644917E-006     0.143627557812E-004
     0.744761965619E+002     0.129647104477E-003     0.738988495517E-004     0.375976602982E-006     0.147387323842E-004
     0.754761965619E+002     0.131181718336E-003     0.747735794517E-004     0.380426983175E-006     0.151191593673E-004
     0.764761965619E+002     0.132711321756E-003     0.756454534007E-004     0.384862833091E-006     0.155040222004E-004
     0.774761965619E+002     0.134235931094E-003     0.765144807233E-004     0.389284200171E-006     0.158933064006E-004
     0.784761965619E+002     0.135755562656E-003     0.773806707137E-004     0.393691131701E-006     0.162869975323E-004
     0.794761965619E+002     0.137270232694E-003     0.782440326355E-004     0.398083674812E-006     0.166850812071E-004
     0.804761965619E+002     0.138779957408E-003     0.791045757224E-004     0.402461876482E-006     0.170875430836E-004
     0.814761965619E+002     0.140284752943E-003     0.799623091775E-004     0.406825783535E-006     0.174943688671E-004
     0.824761965619E+002     0.141784635394E-003     0.808172421743E-004     0.411175442641E-006     0.179055443098E-004
     0.834761965619E+002     0.143279620800E-003     0.816693838562E-004     0.415510900321E-006     0.183210552101E-004
     0.844761965619E+002     0.144769725152E-003     0.825187433365E-004     0.419832202940E-006     0.187408874130E-004
     0.854761965619E+002     0.146254964384E-003     0.833653296991E-004     0.424139396715E-006     0.191650268097E-004
     0.864761965619E+002     0.147735354383E-003     0.842091519981E-004     0.428432527710E-006     0.195934593374E-004
     0.874761965619E+002     0.149210910979E-003     0.850502192580E-004     0.432711641839E-006     0.200261709793E-004
     0.884761965619E+002     0.150681649954E-003     0.858885404739E-004     0.436976784867E-006     0.204631477642E-004
     0.894761965619E+002     0.152147587038E-003     0.867241246115E-004     0.441228002409E-006     0.209043757666E-004
     0.904761965619E+002     0.153608737907E-003     0.875569806071E-004     0.445465339931E-006     0.213498411065E-004
     0.914761965619E+002     0.155065118190E-003     0.883871173681E-004     0.449688842750E-006     0.217995299492E-004
     0.924761965619E+002     0.156516743461E-003     0.892145437727E-004     0.453898556036E-006     0.222534285053E-004
     0.934761965619E+002     0.157963629245E-003     0.900392686699E-004     0.458094524812E-006     0.227115230301E-004
     0.944761965619E+002     0.159405791018E-003     0.908613008802E-004     0.462276793952E-006     0.231737998240E-004
     0.954761965619E+002     0.160843244202E-003     0.916806491949E-004     0.466445408185E-006     0.236402452322E-004
     0.964761965619E+002     0.162276004170E-003     0.924973223770E-004     0.470600412093E-006     0.241108456443E-004
     0.974761965619E+002     0.163704086246E-003     0.933113291604E-004     0.474741850115E-006     0.245855874944E-004
     0.984761965619E+002     0.165127505704E-003     0.941226782511E-004     0.478869766540E-006     0.250644572610E-004
     0.994761965619E+002     0.166546277765E-003     0.949313783260E-004     0.482984205518E-006     0.255474414665E-004
     0.100476196562E+003     0.167960417604E-003     0.957374380343E-004     0.487085211052E-006     0.260345266775E-004
     0.101476196562E+003     0.169369940345E-003     0.965408659965E-004     0.491172827000E-006     0.265256995045E-004
     0.102476196562E+003     0.170774861062E-003     0.973416708052E-004     0.495247097079E-006     0.270209466016E-004
     0.103476196562E+003     0.172175194780E-003     0.981398610247E-004     0.499308064863E-006     0.275202546665E-004
     0.104476196562E+003     0.173570956477E-003     0.989354451918E-004     0.503355773783E-006     0.280236104403E-004
     0.105476196562E+003     0.174962161079E-003     0.997284318149E-004     0.507390267128E-006     0.285310007074E-004
     0.106476196562E+003     0.176348823465E-003     0.100518829375E-003     0.511411588048E-006     0.290424122954E-004
     0.107476196562E+003     0.177730958465E-003     0.101306646325E-003     0.515419779549E-006     0.295578320750E-004
     0.108476196562E+003     0.179108580861E-003     0.102091891091E-003     0.519414884498E-006     0.300772469595E-004
     0.109476196562E+003     0.180481705387E-003     0.102874572070E-003     0.523396945622E-006     0.306006439051E-004
     0.110476196562E+003     0.181850346727E-003     0.103654697634E-003     0.527366005508E-006     0.311280099106E-004
     0.111476196562E+003     0.183214519519E-003     0.104432276126E-003     0.531322106606E-006     0.316593320172E-004
     0.112476196562E+003     0.184574238353E-003     0.105207315861E-003     0.535265291224E-006     0.321945973085E-004
     0.113476196562E+003     0.185929517771E-003     0.105979825129E-003     0.539195601535E-006     0.327337929100E-004
     0.114476196562E+003     0.187280372266E-003     0.106749812192E-003     0.543113079572E-006     0.332769059896E-004
     0.115476196562E+003     0.188626816287E-003     0.107517285284E-003     0.547017767233E-006     0.338239237568E-004
     0.116476196562E+003     0.189968864233E-003     0.108282252613E-003     0.550909706276E-006     0.343748334631E-004
     0.117476196562E+003     0.191306530458E-003     0.109044722361E-003     0.554788938327E-006     0.349296224014E-004
     0.118476196562E+003     0.192639829266E-003     0.109804702682E-003     0.558655504872E-006     0.354882779063E-004
     0.119476196562E+003     0.193968774918E-003     0.110562201704E-003     0.562509447263E-006     0.360507873535E-004
     0.120476196562E+003     0.195293381627E-003     0.111317227528E-003     0.566350806719E-006     0.366171381603E-004
     0.121476196562E+003     0.196613663559E-003     0.112069788229E-003     0.570179624322E-006     0.371873177846E-004
     0.122476196562E+003     0.197929634834E-003     0.112819891856E-003     0.573995941019E-006     0.377613137256E-004
     0.123476196562E+003     0.199241309527E-003     0.113567546430E-003     0.577799797627E-006     0.383391135232E-004
     0.124476196562E+003     0.200548701664E-003     0.114312759949E-003     0.581591234827E-006     0.389207047580E-004
     0.125476196562E+003     0.201851825230E-003     0.115055540381E-003     0.585370293167E-006     0.395060750512E-004
     0.126476196562E+003     0.203150694160E-003     0.115795895671E-003     0.589137013064E-006     0.400952120643E-004
     0.127476196562E+003     0.204445322345E-003     0.116533833737E-003     0.592891434802E-006     0.406881034991E-004
     0.128476196562E+003     0.205735723632E-003     0.117269362470E-003     0.596633598534E-006     0.412847370976E-004
     0.129476196562E+003     0.207021911821E-003     0.118002489738E-003     0.600363544282E-006     0.418851006419E-004
     0.130476196562E+003     0.208303900668E-003     0.118733223381E-003     0.604081311938E-006     0.424891819538E-004
     0.131476196562E+003     0.209581703883E-003     0.119461571213E-003     0.607786941261E-006     0.430969688951E-004
     0.132476196562E+003     0.210855335132E-003     0.120187541025E-003     0.611480471883E-006     0.437084493670E-004
     0.133476196562E+003     0.212124808037E-003     0.120911140581E-003     0.615161943306E-006     0.443236113103E-004
