 #              _____________________  _______________________             #
 #              ___  __ \__  __ \_  / / /_  /___  ____/_  ___/             #
 #              __  / / /_  /_/ /  / / /_  __/_  __/  _____ \              #
 #              _  /_/ /_  _, _// /_/ / / /_ _  /___  ____/ /              #
 #              /_____/ /_/ |_| \____/  \__/ /_____/  /____/               #
 #                                                                         #
  
 #        time                      c  [M/M]                   concetration [M/M]       zero flux   in    x              directions   cumulative flux
 #-----------------------------------------------------------------------------------------------

     0.000000000000E+000     0.642928000000E-003     0.000000000000E+000     0.000000000000E+000     0.000000000000E+000
     0.100000000000E+000     0.642717468472E-003     0.000000000000E+000     0.000000000000E+000     0.000000000000E+000
     0.206000000000E+000     0.642494382512E-003     0.000000000000E+000     0.000000000000E+000     0.000000000000E+000
     0.318360000000E+000     0.642257998396E-003     0.000000000000E+000     0.000000000000E+000     0.000000000000E+000
     0.437461600000E+000     0.642007528950E-003     0.000000000000E+000     0.000000000000E+000     0.000000000000E+000
     0.563709296000E+000     0.641742141087E-003     0.000000000000E+000     0.000000000000E+000     0.000000000000E+000
     0.697531853760E+000     0.641460953211E-003     0.000000000000E+000     0.000000000000E+000     0.000000000000E+000
     0.839383764986E+000     0.641163032495E-003     0.000000000000E+000     0.000000000000E+000     0.000000000000E+000
     0.989746790885E+000     0.640847391999E-003     0.000000000000E+000     0.000000000000E+000     0.000000000000E+000
     0.114913159834E+001     0.640512987663E-003     0.000000000000E+000     0.000000000000E+000     0.000000000000E+000
     0.131807949424E+001     0.640158715125E-003     0.000000000000E+000     0.000000000000E+000     0.000000000000E+000
     0.149716426389E+001     0.639783406398E-003     0.000000000000E+000     0.000000000000E+000     0.000000000000E+000
     0.168699411973E+001     0.639385826369E-003     0.000000000000E+000     0.000000000000E+000     0.000000000000E+000
     0.188821376691E+001     0.638964669133E-003     0.000000000000E+000     0.000000000000E+000     0.000000000000E+000
     0.210150659292E+001     0.638518554152E-003     0.000000000000E+000     0.000000000000E+000     0.000000000000E+000
     0.232759698850E+001     0.638046022224E-003     0.000000000000E+000     0.000000000000E+000     0.000000000000E+000
     0.256725280781E+001     0.637545531281E-003     0.000000000000E+000     0.000000000000E+000     0.000000000000E+000
     0.282128797628E+001     0.637015451975E-003     0.000000000000E+000     0.000000000000E+000     0.000000000000E+000
     0.309056525485E+001     0.636454063088E-003     0.000000000000E+000     0.000000000000E+000     0.000000000000E+000
     0.337599917015E+001     0.635859546729E-003     0.000000000000E+000     0.000000000000E+000     0.000000000000E+000
     0.367855912035E+001     0.635229983336E-003     0.000000000000E+000     0.000000000000E+000     0.000000000000E+000
     0.399927266758E+001     0.634563346471E-003     0.000000000000E+000     0.000000000000E+000     0.000000000000E+000
     0.433922902763E+001     0.633857497411E-003     0.000000000000E+000     0.000000000000E+000     0.000000000000E+000
     0.469958276929E+001     0.633110179536E-003     0.000000000000E+000     0.000000000000E+000     0.000000000000E+000
     0.508155773545E+001     0.632319012508E-003     0.000000000000E+000     0.000000000000E+000     0.000000000000E+000
     0.548645119957E+001     0.631481486259E-003     0.000000000000E+000     0.000000000000E+000     0.000000000000E+000
     0.591563827155E+001     0.630594954778E-003     0.000000000000E+000     0.000000000000E+000     0.000000000000E+000
     0.637057656784E+001     0.629656629718E-003     0.000000000000E+000     0.000000000000E+000     0.000000000000E+000
     0.685281116191E+001     0.628663573814E-003     0.000000000000E+000     0.000000000000E+000     0.000000000000E+000
     0.736397983162E+001     0.627612694157E-003     0.000000000000E+000     0.000000000000E+000     0.000000000000E+000
     0.790581862152E+001     0.626500735306E-003     0.000000000000E+000     0.000000000000E+000     0.000000000000E+000
     0.848016773881E+001     0.625324272280E-003     0.000000000000E+000     0.000000000000E+000     0.000000000000E+000
     0.908897780314E+001     0.624079703450E-003     0.000000000000E+000     0.000000000000E+000     0.000000000000E+000
     0.973431647133E+001     0.622763243357E-003     0.000000000000E+000     0.000000000000E+000     0.000000000000E+000
     0.104183754596E+002     0.621370915496E-003     0.000000000000E+000     0.000000000000E+000     0.000000000000E+000
     0.111434779872E+002     0.619898545108E-003     0.000000000000E+000     0.000000000000E+000     0.000000000000E+000
     0.119120866664E+002     0.618341752020E-003     0.000000000000E+000     0.000000000000E+000     0.000000000000E+000
     0.127268118664E+002     0.616695943600E-003     0.000000000000E+000     0.000000000000E+000     0.000000000000E+000
     0.135904205784E+002     0.614956307891E-003     0.000000000000E+000     0.000000000000E+000     0.000000000000E+000
     0.145058458131E+002     0.613117806986E-003     0.000000000000E+000     0.000000000000E+000     0.000000000000E+000
     0.154761965619E+002     0.611175170746E-003     0.000000000000E+000     0.000000000000E+000     0.000000000000E+000
     0.164761965619E+002     0.609179713301E-003     0.000000000000E+000     0.000000000000E+000     0.000000000000E+000
     0.174761965619E+002     0.607190770928E-003     0.000000000000E+000     0.000000000000E+000     0.000000000000E+000
     0.184761965619E+002     0.605208322356E-003     0.000000000000E+000     0.000000000000E+000     0.000000000000E+000
     0.194761965619E+002     0.603232346383E-003     0.000000000000E+000     0.000000000000E+000     0.000000000000E+000
     0.204761965619E+002     0.601262821876E-003     0.000000000000E+000     0.000000000000E+000     0.000000000000E+000
     0.214761965619E+002     0.599299727771E-003     0.000000000000E+000     0.000000000000E+000     0.000000000000E+000
     0.224761965619E+002     0.597343043075E-003     0.000000000000E+000     0.000000000000E+000     0.000000000000E+000
     0.234761965619E+002     0.595392746859E-003     0.000000000000E+000     0.000000000000E+000     0.000000000000E+000
     0.244761965619E+002     0.593448818266E-003     0.000000000000E+000     0.000000000000E+000     0.000000000000E+000
     0.254761965619E+002     0.591511236507E-003     0.000000000000E+000     0.000000000000E+000     0.000000000000E+000
     0.264761965619E+002     0.589579980858E-003     0.000000000000E+000     0.000000000000E+000     0.000000000000E+000
     0.274761965619E+002     0.587655030666E-003     0.000000000000E+000     0.000000000000E+000     0.000000000000E+000
     0.284761965619E+002     0.585736365343E-003     0.000000000000E+000     0.000000000000E+000     0.000000000000E+000
     0.294761965619E+002     0.583823964370E-003     0.000000000000E+000     0.000000000000E+000     0.000000000000E+000
     0.304761965619E+002     0.581917807294E-003     0.000000000000E+000     0.000000000000E+000     0.000000000000E+000
     0.314761965619E+002     0.580017873729E-003     0.000000000000E+000     0.000000000000E+000     0.000000000000E+000
     0.324761965619E+002     0.578124143355E-003     0.000000000000E+000     0.000000000000E+000     0.000000000000E+000
     0.334761965619E+002     0.576236595920E-003     0.000000000000E+000     0.000000000000E+000     0.000000000000E+000
     0.344761965619E+002     0.574355211236E-003     0.000000000000E+000     0.000000000000E+000     0.000000000000E+000
     0.354761965619E+002     0.572479969182E-003     0.000000000000E+000     0.000000000000E+000     0.000000000000E+000
     0.364761965619E+002     0.570610849703E-003     0.000000000000E+000     0.000000000000E+000     0.000000000000E+000
     0.374761965619E+002     0.568747832809E-003     0.000000000000E+000     0.000000000000E+000     0.000000000000E+000
     0.384761965619E+002     0.566890898575E-003     0.000000000000E+000     0.000000000000E+000     0.000000000000E+000
     0.394761965619E+002     0.565040027142E-003     0.000000000000E+000     0.000000000000E+000     0.000000000000E+000
     0.404761965619E+002     0.563195198715E-003     0.000000000000E+000     0.000000000000E+000     0.000000000000E+000
     0.414761965619E+002     0.561356393563E-003     0.000000000000E+000     0.000000000000E+000     0.000000000000E+000
     0.424761965619E+002     0.559523592022E-003     0.000000000000E+000     0.000000000000E+000     0.000000000000E+000
     0.434761965619E+002     0.557696774489E-003     0.000000000000E+000     0.000000000000E+000     0.000000000000E+000
     0.444761965619E+002     0.555875921427E-003     0.000000000000E+000     0.000000000000E+000     0.000000000000E+000
     0.454761965619E+002     0.554061013363E-003     0.000000000000E+000     0.000000000000E+000     0.000000000000E+000
     0.464761965619E+002     0.552252030886E-003     0.000000000000E+000     0.000000000000E+000     0.000000000000E+000
     0.474761965619E+002     0.550448954650E-003     0.000000000000E+000     0.000000000000E+000     0.000000000000E+000
     0.484761965619E+002     0.548651765370E-003     0.000000000000E+000     0.000000000000E+000     0.000000000000E+000
     0.494761965619E+002     0.546860443827E-003     0.000000000000E+000     0.000000000000E+000     0.000000000000E+000
     0.504761965619E+002     0.545074970862E-003     0.000000000000E+000     0.000000000000E+000     0.000000000000E+000
     0.514761965619E+002     0.543295327381E-003     0.000000000000E+000     0.000000000000E+000     0.000000000000E+000
     0.524761965619E+002     0.541521494349E-003     0.000000000000E+000     0.000000000000E+000     0.000000000000E+000
     0.534761965619E+002     0.539753452797E-003     0.000000000000E+000     0.000000000000E+000     0.000000000000E+000
     0.544761965619E+002     0.537991183815E-003     0.000000000000E+000     0.000000000000E+000     0.000000000000E+000
     0.554761965619E+002     0.536234668556E-003     0.000000000000E+000     0.000000000000E+000     0.000000000000E+000
     0.564761965619E+002     0.534483888235E-003     0.000000000000E+000     0.000000000000E+000     0.000000000000E+000
     0.574761965619E+002     0.532738824127E-003     0.000000000000E+000     0.000000000000E+000     0.000000000000E+000
     0.584761965619E+002     0.530999457569E-003     0.000000000000E+000     0.000000000000E+000     0.000000000000E+000
     0.594761965619E+002     0.529265769959E-003     0.000000000000E+000     0.000000000000E+000     0.000000000000E+000
     0.604761965619E+002     0.527537742755E-003     0.000000000000E+000     0.000000000000E+000     0.000000000000E+000
     0.614761965619E+002     0.525815357477E-003     0.000000000000E+000     0.000000000000E+000     0.000000000000E+000
     0.624761965619E+002     0.524098595704E-003     0.000000000000E+000     0.000000000000E+000     0.000000000000E+000
     0.634761965619E+002     0.522387439075E-003     0.000000000000E+000     0.000000000000E+000     0.000000000000E+000
     0.644761965619E+002     0.520681869290E-003     0.000000000000E+000     0.000000000000E+000     0.000000000000E+000
     0.654761965619E+002     0.518981868108E-003     0.000000000000E+000     0.000000000000E+000     0.000000000000E+000
     0.664761965619E+002     0.517287417348E-003     0.000000000000E+000     0.000000000000E+000     0.000000000000E+000
     0.674761965619E+002     0.515598498888E-003     0.000000000000E+000     0.000000000000E+000     0.000000000000E+000
     0.684761965619E+002     0.513915094665E-003     0.000000000000E+000     0.000000000000E+000     0.000000000000E+000
     0.694761965619E+002     0.512237186676E-003     0.000000000000E+000     0.000000000000E+000     0.000000000000E+000
     0.704761965619E+002     0.510564756975E-003     0.000000000000E+000     0.000000000000E+000     0.000000000000E+000
     0.714761965619E+002     0.508897787677E-003     0.000000000000E+000     0.000000000000E+000     0.000000000000E+000
     0.724761965619E+002     0.507236260953E-003     0.000000000000E+000     0.000000000000E+000     0.000000000000E+000
     0.734761965619E+002     0.505580159033E-003     0.000000000000E+000     0.000000000000E+000     0.000000000000E+000
     0.744761965619E+002     0.503929464206E-003     0.000000000000E+000     0.000000000000E+000     0.000000000000E+000
     0.754761965619E+002     0.502284158819E-003     0.000000000000E+000     0.000000000000E+000     0.000000000000E+000
     0.764761965619E+002     0.500644225274E-003     0.000000000000E+000     0.000000000000E+000     0.000000000000E+000
     0.774761965619E+002     0.499009646033E-003     0.000000000000E+000     0.000000000000E+000     0.000000000000E+000
     0.784761965619E+002     0.497380403614E-003     0.000000000000E+000     0.000000000000E+000     0.000000000000E+000
     0.794761965619E+002     0.495756480593E-003     0.000000000000E+000     0.000000000000E+000     0.000000000000E+000
     0.804761965619E+002     0.494137859603E-003     0.000000000000E+000     0.000000000000E+000     0.000000000000E+000
     0.814761965619E+002     0.492524523332E-003     0.000000000000E+000     0.000000000000E+000     0.000000000000E+000
     0.824761965619E+002     0.490916454526E-003     0.000000000000E+000     0.000000000000E+000     0.000000000000E+000
     0.834761965619E+002     0.489313635987E-003     0.000000000000E+000     0.000000000000E+000     0.000000000000E+000
     0.844761965619E+002     0.487716050573E-003     0.000000000000E+000     0.000000000000E+000     0.000000000000E+000
     0.854761965619E+002     0.486123681199E-003     0.000000000000E+000     0.000000000000E+000     0.000000000000E+000
     0.864761965619E+002     0.484536510834E-003     0.000000000000E+000     0.000000000000E+000     0.000000000000E+000
     0.874761965619E+002     0.482954522503E-003     0.000000000000E+000     0.000000000000E+000     0.000000000000E+000
     0.884761965619E+002     0.481377699288E-003     0.000000000000E+000     0.000000000000E+000     0.000000000000E+000
     0.894761965619E+002     0.479806024325E-003     0.000000000000E+000     0.000000000000E+000     0.000000000000E+000
     0.904761965619E+002     0.478239480805E-003     0.000000000000E+000     0.000000000000E+000     0.000000000000E+000
     0.914761965619E+002     0.476678051974E-003     0.000000000000E+000     0.000000000000E+000     0.000000000000E+000
     0.924761965619E+002     0.475121721132E-003     0.000000000000E+000     0.000000000000E+000     0.000000000000E+000
     0.934761965619E+002     0.473570471636E-003     0.000000000000E+000     0.000000000000E+000     0.000000000000E+000
     0.944761965619E+002     0.472024286894E-003     0.000000000000E+000     0.000000000000E+000     0.000000000000E+000
     0.954761965619E+002     0.470483150371E-003     0.000000000000E+000     0.000000000000E+000     0.000000000000E+000
     0.964761965619E+002     0.468947045584E-003     0.000000000000E+000     0.000000000000E+000     0.000000000000E+000
     0.974761965619E+002     0.467415956106E-003     0.000000000000E+000     0.000000000000E+000     0.000000000000E+000
     0.984761965619E+002     0.465889865560E-003     0.000000000000E+000     0.000000000000E+000     0.000000000000E+000
     0.994761965619E+002     0.464368757627E-003     0.000000000000E+000     0.000000000000E+000     0.000000000000E+000
     0.100476196562E+003     0.462852616038E-003     0.000000000000E+000     0.000000000000E+000     0.000000000000E+000
     0.101476196562E+003     0.461341424578E-003     0.000000000000E+000     0.000000000000E+000     0.000000000000E+000
     0.102476196562E+003     0.459835167085E-003     0.000000000000E+000     0.000000000000E+000     0.000000000000E+000
     0.103476196562E+003     0.458333827450E-003     0.000000000000E+000     0.000000000000E+000     0.000000000000E+000
     0.104476196562E+003     0.456837389616E-003     0.000000000000E+000     0.000000000000E+000     0.000000000000E+000
     0.105476196562E+003     0.455345837580E-003     0.000000000000E+000     0.000000000000E+000     0.000000000000E+000
     0.106476196562E+003     0.453859155389E-003     0.000000000000E+000     0.000000000000E+000     0.000000000000E+000
     0.107476196562E+003     0.452377327144E-003     0.000000000000E+000     0.000000000000E+000     0.000000000000E+000
     0.108476196562E+003     0.450900336997E-003     0.000000000000E+000     0.000000000000E+000     0.000000000000E+000
     0.109476196562E+003     0.449428169151E-003     0.000000000000E+000     0.000000000000E+000     0.000000000000E+000
     0.110476196562E+003     0.447960807862E-003     0.000000000000E+000     0.000000000000E+000     0.000000000000E+000
     0.111476196562E+003     0.446498237437E-003     0.000000000000E+000     0.000000000000E+000     0.000000000000E+000
     0.112476196562E+003     0.445040442234E-003     0.000000000000E+000     0.000000000000E+000     0.000000000000E+000
     0.113476196562E+003     0.443587406662E-003     0.000000000000E+000     0.000000000000E+000     0.000000000000E+000
     0.114476196562E+003     0.442139115181E-003     0.000000000000E+000     0.000000000000E+000     0.000000000000E+000
     0.115476196562E+003     0.440695552302E-003     0.000000000000E+000     0.000000000000E+000     0.000000000000E+000
     0.116476196562E+003     0.439256702586E-003     0.000000000000E+000     0.000000000000E+000     0.000000000000E+000
     0.117476196562E+003     0.437822550644E-003     0.000000000000E+000     0.000000000000E+000     0.000000000000E+000
     0.118476196562E+003     0.436393081140E-003     0.000000000000E+000     0.000000000000E+000     0.000000000000E+000
     0.119476196562E+003     0.434968278785E-003     0.000000000000E+000     0.000000000000E+000     0.000000000000E+000
     0.120476196562E+003     0.433548128340E-003     0.000000000000E+000     0.000000000000E+000     0.000000000000E+000
     0.121476196562E+003     0.432132614619E-003     0.000000000000E+000     0.000000000000E+000     0.000000000000E+000
     0.122476196562E+003     0.430721722481E-003     0.000000000000E+000     0.000000000000E+000     0.000000000000E+000
     0.123476196562E+003     0.429315436838E-003     0.000000000000E+000     0.000000000000E+000     0.000000000000E+000
     0.124476196562E+003     0.427913742650E-003     0.000000000000E+000     0.000000000000E+000     0.000000000000E+000
     0.125476196562E+003     0.426516624926E-003     0.000000000000E+000     0.000000000000E+000     0.000000000000E+000
     0.126476196562E+003     0.425124068723E-003     0.000000000000E+000     0.000000000000E+000     0.000000000000E+000
     0.127476196562E+003     0.423736059150E-003     0.000000000000E+000     0.000000000000E+000     0.000000000000E+000
     0.128476196562E+003     0.422352581361E-003     0.000000000000E+000     0.000000000000E+000     0.000000000000E+000
     0.129476196562E+003     0.420973620560E-003     0.000000000000E+000     0.000000000000E+000     0.000000000000E+000
     0.130476196562E+003     0.419599161999E-003     0.000000000000E+000     0.000000000000E+000     0.000000000000E+000
     0.131476196562E+003     0.418229190980E-003     0.000000000000E+000     0.000000000000E+000     0.000000000000E+000
     0.132476196562E+003     0.416863692849E-003     0.000000000000E+000     0.000000000000E+000     0.000000000000E+000
     0.133476196562E+003     0.415502653004E-003     0.000000000000E+000     0.000000000000E+000     0.000000000000E+000
