 #              _____________________  _______________________             #
 #              ___  __ \__  __ \_  / / /_  /___  ____/_  ___/             #
 #              __  / / /_  /_/ /  / / /_  __/_  __/  _____ \              #
 #              _  /_/ /_  _, _// /_/ / / /_ _  /___  ____/ /              #
 #              /_____/ /_/ |_| \____/  \__/ /_____/  /____/               #
 #                                                                         #
  
 #        time                      c  [M/M]                   concetration [M/M]       zero flux   in    x              directions   cumulative flux
 #-----------------------------------------------------------------------------------------------

     0.000000000000E+000     0.642928000000E-003     0.000000000000E+000     0.000000000000E+000     0.000000000000E+000
     0.100000000000E+000     0.628340754814E-003     0.000000000000E+000     0.000000000000E+000     0.000000000000E+000
     0.206000000000E+000     0.613249643483E-003     0.000000000000E+000     0.000000000000E+000     0.000000000000E+000
     0.318360000000E+000     0.597659727442E-003     0.000000000000E+000     0.000000000000E+000     0.000000000000E+000
     0.437461600000E+000     0.581579047758E-003     0.000000000000E+000     0.000000000000E+000     0.000000000000E+000
     0.563709296000E+000     0.565018889544E-003     0.000000000000E+000     0.000000000000E+000     0.000000000000E+000
     0.697531853760E+000     0.547994042576E-003     0.000000000000E+000     0.000000000000E+000     0.000000000000E+000
     0.839383764986E+000     0.530523052979E-003     0.000000000000E+000     0.000000000000E+000     0.000000000000E+000
     0.989746790885E+000     0.512628460032E-003     0.000000000000E+000     0.000000000000E+000     0.000000000000E+000
     0.114913159834E+001     0.494337011345E-003     0.000000000000E+000     0.000000000000E+000     0.000000000000E+000
     0.131807949424E+001     0.475679848827E-003     0.000000000000E+000     0.000000000000E+000     0.000000000000E+000
     0.149716426389E+001     0.456692657138E-003     0.000000000000E+000     0.000000000000E+000     0.000000000000E+000
     0.168699411973E+001     0.437415765619E-003     0.000000000000E+000     0.000000000000E+000     0.000000000000E+000
     0.188821376691E+001     0.417894194195E-003     0.000000000000E+000     0.000000000000E+000     0.000000000000E+000
     0.210150659292E+001     0.398177633375E-003     0.000000000000E+000     0.000000000000E+000     0.000000000000E+000
     0.232759698850E+001     0.378320348420E-003     0.000000000000E+000     0.000000000000E+000     0.000000000000E+000
     0.256725280781E+001     0.358380997957E-003     0.000000000000E+000     0.000000000000E+000     0.000000000000E+000
     0.282128797628E+001     0.338422357959E-003     0.000000000000E+000     0.000000000000E+000     0.000000000000E+000
     0.309056525485E+001     0.318510943110E-003     0.000000000000E+000     0.000000000000E+000     0.000000000000E+000
     0.337599917015E+001     0.298716519140E-003     0.000000000000E+000     0.000000000000E+000     0.000000000000E+000
     0.367855912035E+001     0.279111501961E-003     0.000000000000E+000     0.000000000000E+000     0.000000000000E+000
     0.399927266758E+001     0.259770242192E-003     0.000000000000E+000     0.000000000000E+000     0.000000000000E+000
     0.433922902763E+001     0.240768197088E-003     0.000000000000E+000     0.000000000000E+000     0.000000000000E+000
     0.469958276929E+001     0.222180995958E-003     0.000000000000E+000     0.000000000000E+000     0.000000000000E+000
     0.508155773545E+001     0.204083409671E-003     0.000000000000E+000     0.000000000000E+000     0.000000000000E+000
     0.548645119957E+001     0.186548239881E-003     0.000000000000E+000     0.000000000000E+000     0.000000000000E+000
     0.591563827155E+001     0.169645148858E-003     0.000000000000E+000     0.000000000000E+000     0.000000000000E+000
     0.637057656784E+001     0.153439456110E-003     0.000000000000E+000     0.000000000000E+000     0.000000000000E+000
     0.685281116191E+001     0.137990933010E-003     0.000000000000E+000     0.000000000000E+000     0.000000000000E+000
     0.736397983162E+001     0.123352631159E-003     0.000000000000E+000     0.000000000000E+000     0.000000000000E+000
     0.790581862152E+001     0.109569783680E-003     0.000000000000E+000     0.000000000000E+000     0.000000000000E+000
     0.848016773881E+001     0.966788208499E-004     0.000000000000E+000     0.000000000000E+000     0.000000000000E+000
     0.908897780314E+001     0.847065418608E-004     0.000000000000E+000     0.000000000000E+000     0.000000000000E+000
     0.973431647133E+001     0.736694828844E-004     0.000000000000E+000     0.000000000000E+000     0.000000000000E+000
     0.104183754596E+002     0.635735175865E-004     0.000000000000E+000     0.000000000000E+000     0.000000000000E+000
     0.111434779872E+002     0.544137197627E-004     0.000000000000E+000     0.000000000000E+000     0.000000000000E+000
     0.119120866664E+002     0.461745088196E-004     0.000000000000E+000     0.000000000000E+000     0.000000000000E+000
     0.127268118664E+002     0.388300876499E-004     0.000000000000E+000     0.000000000000E+000     0.000000000000E+000
     0.135904205784E+002     0.323451694935E-004     0.000000000000E+000     0.000000000000E+000     0.000000000000E+000
     0.145058458131E+002     0.266759763077E-004     0.000000000000E+000     0.000000000000E+000     0.000000000000E+000
     0.154761965619E+002     0.217714768696E-004     0.000000000000E+000     0.000000000000E+000     0.000000000000E+000
     0.165047683556E+002     0.175748193127E-004     0.000000000000E+000     0.000000000000E+000     0.000000000000E+000
     0.175950544569E+002     0.140249011701E-004     0.000000000000E+000     0.000000000000E+000     0.000000000000E+000
     0.187507577243E+002     0.110580403526E-004     0.000000000000E+000     0.000000000000E+000     0.000000000000E+000
     0.199758031878E+002     0.860955929710E-005     0.000000000000E+000     0.000000000000E+000     0.000000000000E+000
     0.212743513791E+002     0.661538065580E-005     0.000000000000E+000     0.000000000000E+000     0.000000000000E+000
     0.226508124618E+002     0.501347602034E-005     0.000000000000E+000     0.000000000000E+000     0.000000000000E+000
     0.241098612095E+002     0.374511198660E-005     0.000000000000E+000     0.000000000000E+000     0.000000000000E+000
     0.256564528821E+002     0.275585952185E-005     0.000000000000E+000     0.000000000000E+000     0.000000000000E+000
     0.272958400550E+002     0.199633871797E-005     0.000000000000E+000     0.000000000000E+000     0.000000000000E+000
     0.290335904583E+002     0.142268861359E-005     0.000000000000E+000     0.000000000000E+000     0.000000000000E+000
     0.308756058858E+002     0.996769315569E-006     0.000000000000E+000     0.000000000000E+000     0.000000000000E+000
     0.328281422390E+002     0.686119565037E-006     0.000000000000E+000     0.000000000000E+000     0.000000000000E+000
     0.348281422390E+002     0.468820075385E-006     0.000000000000E+000     0.000000000000E+000     0.000000000000E+000
     0.368281422390E+002     0.320426435249E-006     0.000000000000E+000     0.000000000000E+000     0.000000000000E+000
     0.388281422390E+002     0.219088543167E-006     0.000000000000E+000     0.000000000000E+000     0.000000000000E+000
     0.408281422390E+002     0.149884982301E-006     0.000000000000E+000     0.000000000000E+000     0.000000000000E+000
     0.428281422390E+002     0.102625929267E-006     0.000000000000E+000     0.000000000000E+000     0.000000000000E+000
     0.448281422390E+002     0.703527621175E-007     0.000000000000E+000     0.000000000000E+000     0.000000000000E+000
     0.468281422390E+002     0.483134437457E-007     0.000000000000E+000     0.000000000000E+000     0.000000000000E+000
     0.488281422390E+002     0.332628120122E-007     0.000000000000E+000     0.000000000000E+000     0.000000000000E+000
     0.508281422390E+002     0.229847484375E-007     0.000000000000E+000     0.000000000000E+000     0.000000000000E+000
     0.528281422390E+002     0.159658675926E-007     0.000000000000E+000     0.000000000000E+000     0.000000000000E+000
     0.548281422390E+002     0.111726798549E-007     0.000000000000E+000     0.000000000000E+000     0.000000000000E+000
     0.568281422390E+002     0.789941604116E-008     0.000000000000E+000     0.000000000000E+000     0.000000000000E+000
     0.588281422390E+002     0.566410697792E-008     0.000000000000E+000     0.000000000000E+000     0.000000000000E+000
     0.608281422390E+002     0.413761632765E-008     0.000000000000E+000     0.000000000000E+000     0.000000000000E+000
     0.628281422390E+002     0.309517716634E-008     0.000000000000E+000     0.000000000000E+000     0.000000000000E+000
     0.648281422390E+002     0.238329635347E-008     0.000000000000E+000     0.000000000000E+000     0.000000000000E+000
     0.668281422390E+002     0.189715355441E-008     0.000000000000E+000     0.000000000000E+000     0.000000000000E+000
     0.688281422390E+002     0.156516705220E-008     0.000000000000E+000     0.000000000000E+000     0.000000000000E+000
     0.708281422390E+002     0.133845375341E-008     0.000000000000E+000     0.000000000000E+000     0.000000000000E+000
     0.728281422390E+002     0.118363143534E-008     0.000000000000E+000     0.000000000000E+000     0.000000000000E+000
     0.748281422390E+002     0.107790340657E-008     0.000000000000E+000     0.000000000000E+000     0.000000000000E+000
     0.768281422390E+002     0.100570182604E-008     0.000000000000E+000     0.000000000000E+000     0.000000000000E+000
     0.788281422390E+002     0.956395428377E-009     0.000000000000E+000     0.000000000000E+000     0.000000000000E+000
     0.808281422390E+002     0.922724131529E-009     0.000000000000E+000     0.000000000000E+000     0.000000000000E+000
     0.828281422390E+002     0.899730031675E-009     0.000000000000E+000     0.000000000000E+000     0.000000000000E+000
     0.848281422390E+002     0.884027380526E-009     0.000000000000E+000     0.000000000000E+000     0.000000000000E+000
     0.868281422390E+002     0.873304053470E-009     0.000000000000E+000     0.000000000000E+000     0.000000000000E+000
     0.888281422390E+002     0.865981102583E-009     0.000000000000E+000     0.000000000000E+000     0.000000000000E+000
     0.908281422390E+002     0.860980265678E-009     0.000000000000E+000     0.000000000000E+000     0.000000000000E+000
     0.928281422390E+002     0.857565198427E-009     0.000000000000E+000     0.000000000000E+000     0.000000000000E+000
     0.948281422390E+002     0.855233051918E-009     0.000000000000E+000     0.000000000000E+000     0.000000000000E+000
     0.968281422390E+002     0.853640431059E-009     0.000000000000E+000     0.000000000000E+000     0.000000000000E+000
     0.988281422390E+002     0.852552831634E-009     0.000000000000E+000     0.000000000000E+000     0.000000000000E+000
     0.100828142239E+003     0.851810110915E-009     0.000000000000E+000     0.000000000000E+000     0.000000000000E+000
     0.102828142239E+003     0.851302907569E-009     0.000000000000E+000     0.000000000000E+000     0.000000000000E+000
     0.104828142239E+003     0.850956538836E-009     0.000000000000E+000     0.000000000000E+000     0.000000000000E+000
     0.106828142239E+003     0.850720003923E-009     0.000000000000E+000     0.000000000000E+000     0.000000000000E+000
     0.108828142239E+003     0.850558474430E-009     0.000000000000E+000     0.000000000000E+000     0.000000000000E+000
     0.110828142239E+003     0.850448166074E-009     0.000000000000E+000     0.000000000000E+000     0.000000000000E+000
     0.112828142239E+003     0.850372836588E-009     0.000000000000E+000     0.000000000000E+000     0.000000000000E+000
     0.114828142239E+003     0.850321394142E-009     0.000000000000E+000     0.000000000000E+000     0.000000000000E+000
     0.116828142239E+003     0.850286264133E-009     0.000000000000E+000     0.000000000000E+000     0.000000000000E+000
     0.118828142239E+003     0.850262273872E-009     0.000000000000E+000     0.000000000000E+000     0.000000000000E+000
     0.120828142239E+003     0.850245890935E-009     0.000000000000E+000     0.000000000000E+000     0.000000000000E+000
     0.122828142239E+003     0.850234703029E-009     0.000000000000E+000     0.000000000000E+000     0.000000000000E+000
     0.124828142239E+003     0.850227062803E-009     0.000000000000E+000     0.000000000000E+000     0.000000000000E+000
     0.126828142239E+003     0.850221845281E-009     0.000000000000E+000     0.000000000000E+000     0.000000000000E+000
     0.128828142239E+003     0.850218282219E-009     0.000000000000E+000     0.000000000000E+000     0.000000000000E+000
     0.130828142239E+003     0.850215848981E-009     0.000000000000E+000     0.000000000000E+000     0.000000000000E+000
     0.132828142239E+003     0.850214187292E-009     0.000000000000E+000     0.000000000000E+000     0.000000000000E+000
     0.134828142239E+003     0.850213052488E-009     0.000000000000E+000     0.000000000000E+000     0.000000000000E+000
     0.136828142239E+003     0.850212277485E-009     0.000000000000E+000     0.000000000000E+000     0.000000000000E+000
     0.138828142239E+003     0.850211748180E-009     0.000000000000E+000     0.000000000000E+000     0.000000000000E+000
     0.140828142239E+003     0.850211386651E-009     0.000000000000E+000     0.000000000000E+000     0.000000000000E+000
     0.142828142239E+003     0.850211139683E-009     0.000000000000E+000     0.000000000000E+000     0.000000000000E+000
     0.144828142239E+003     0.850210970934E-009     0.000000000000E+000     0.000000000000E+000     0.000000000000E+000
     0.146828142239E+003     0.850210855583E-009     0.000000000000E+000     0.000000000000E+000     0.000000000000E+000
     0.148828142239E+003     0.850210776676E-009     0.000000000000E+000     0.000000000000E+000     0.000000000000E+000
     0.150828142239E+003     0.850210722634E-009     0.000000000000E+000     0.000000000000E+000     0.000000000000E+000
     0.152828142239E+003     0.850210685543E-009     0.000000000000E+000     0.000000000000E+000     0.000000000000E+000
     0.154828142239E+003     0.850210659996E-009     0.000000000000E+000     0.000000000000E+000     0.000000000000E+000
     0.156828142239E+003     0.850210642296E-009     0.000000000000E+000     0.000000000000E+000     0.000000000000E+000
     0.158828142239E+003     0.850210629911E-009     0.000000000000E+000     0.000000000000E+000     0.000000000000E+000
     0.160828142239E+003     0.850210621108E-009     0.000000000000E+000     0.000000000000E+000     0.000000000000E+000
     0.162828142239E+003     0.850210614694E-009     0.000000000000E+000     0.000000000000E+000     0.000000000000E+000
     0.164828142239E+003     0.850210609847E-009     0.000000000000E+000     0.000000000000E+000     0.000000000000E+000
     0.166828142239E+003     0.850210605999E-009     0.000000000000E+000     0.000000000000E+000     0.000000000000E+000
     0.168828142239E+003     0.850210602749E-009     0.000000000000E+000     0.000000000000E+000     0.000000000000E+000
     0.170828142239E+003     0.850210599813E-009     0.000000000000E+000     0.000000000000E+000     0.000000000000E+000
     0.172828142239E+003     0.850210596986E-009     0.000000000000E+000     0.000000000000E+000     0.000000000000E+000
     0.174828142239E+003     0.850210594111E-009     0.000000000000E+000     0.000000000000E+000     0.000000000000E+000
     0.176828142239E+003     0.850210591069E-009     0.000000000000E+000     0.000000000000E+000     0.000000000000E+000
     0.178828142239E+003     0.850210587758E-009     0.000000000000E+000     0.000000000000E+000     0.000000000000E+000
     0.180828142239E+003     0.850210584091E-009     0.000000000000E+000     0.000000000000E+000     0.000000000000E+000
     0.182828142239E+003     0.850210579989E-009     0.000000000000E+000     0.000000000000E+000     0.000000000000E+000
     0.184828142239E+003     0.850210575371E-009     0.000000000000E+000     0.000000000000E+000     0.000000000000E+000
     0.186828142239E+003     0.850210570161E-009     0.000000000000E+000     0.000000000000E+000     0.000000000000E+000
     0.188828142239E+003     0.850210564274E-009     0.000000000000E+000     0.000000000000E+000     0.000000000000E+000
     0.190828142239E+003     0.850210557624E-009     0.000000000000E+000     0.000000000000E+000     0.000000000000E+000
     0.192828142239E+003     0.850210550118E-009     0.000000000000E+000     0.000000000000E+000     0.000000000000E+000
     0.194828142239E+003     0.850210541654E-009     0.000000000000E+000     0.000000000000E+000     0.000000000000E+000
     0.196828142239E+003     0.850210532123E-009     0.000000000000E+000     0.000000000000E+000     0.000000000000E+000
     0.198828142239E+003     0.850210521405E-009     0.000000000000E+000     0.000000000000E+000     0.000000000000E+000
     0.200828142239E+003     0.850210509370E-009     0.000000000000E+000     0.000000000000E+000     0.000000000000E+000
     0.202828142239E+003     0.850210495878E-009     0.000000000000E+000     0.000000000000E+000     0.000000000000E+000
     0.204828142239E+003     0.850210480773E-009     0.000000000000E+000     0.000000000000E+000     0.000000000000E+000
     0.206828142239E+003     0.850210463889E-009     0.000000000000E+000     0.000000000000E+000     0.000000000000E+000
     0.208828142239E+003     0.850210445043E-009     0.000000000000E+000     0.000000000000E+000     0.000000000000E+000
     0.210828142239E+003     0.850210424038E-009     0.000000000000E+000     0.000000000000E+000     0.000000000000E+000
     0.212828142239E+003     0.850210400659E-009     0.000000000000E+000     0.000000000000E+000     0.000000000000E+000
     0.214828142239E+003     0.850210374676E-009     0.000000000000E+000     0.000000000000E+000     0.000000000000E+000
     0.216828142239E+003     0.850210345836E-009     0.000000000000E+000     0.000000000000E+000     0.000000000000E+000
     0.218828142239E+003     0.850210313869E-009     0.000000000000E+000     0.000000000000E+000     0.000000000000E+000
     0.220828142239E+003     0.850210278484E-009     0.000000000000E+000     0.000000000000E+000     0.000000000000E+000
     0.222828142239E+003     0.850210239365E-009     0.000000000000E+000     0.000000000000E+000     0.000000000000E+000
     0.224828142239E+003     0.850210196173E-009     0.000000000000E+000     0.000000000000E+000     0.000000000000E+000
     0.226828142239E+003     0.850210148544E-009     0.000000000000E+000     0.000000000000E+000     0.000000000000E+000
     0.228828142239E+003     0.850210096087E-009     0.000000000000E+000     0.000000000000E+000     0.000000000000E+000
     0.230828142239E+003     0.850210038382E-009     0.000000000000E+000     0.000000000000E+000     0.000000000000E+000
     0.232828142239E+003     0.850209974978E-009     0.000000000000E+000     0.000000000000E+000     0.000000000000E+000
     0.234828142239E+003     0.850209905395E-009     0.000000000000E+000     0.000000000000E+000     0.000000000000E+000
     0.236828142239E+003     0.850209829117E-009     0.000000000000E+000     0.000000000000E+000     0.000000000000E+000
     0.238828142239E+003     0.850209745593E-009     0.000000000000E+000     0.000000000000E+000     0.000000000000E+000
     0.240828142239E+003     0.850209654238E-009     0.000000000000E+000     0.000000000000E+000     0.000000000000E+000
     0.242828142239E+003     0.850209554423E-009     0.000000000000E+000     0.000000000000E+000     0.000000000000E+000
     0.244828142239E+003     0.850209445483E-009     0.000000000000E+000     0.000000000000E+000     0.000000000000E+000
