 #              _____________________  _______________________             #
 #              ___  __ \__  __ \_  / / /_  /___  ____/_  ___/             #
 #              __  / / /_  /_/ /  / / /_  __/_  __/  _____ \              #
 #              _  /_/ /_  _, _// /_/ / / /_ _  /___  ____/ /              #
 #              /_____/ /_/ |_| \____/  \__/ /_____/  /____/               #
 #                                                                         #
  
 #        time                      c  [M/L^3]                   concetration [M/L^3]       concentration flux [M.L^{-2}.T^{-1}]   in    x              directions   cumulative flux
 #-----------------------------------------------------------------------------------------------

     0.000000000000E+000     0.000000000000E+000     0.000000000000E+000     0.000000000000E+000     0.000000000000E+000
     0.100000000000E+000     0.136058562770E-004     0.775533807789E-005    -0.394569832033E-007     0.394569832033E-008
     0.206000000000E+000     0.276816799985E-004     0.157785575992E-004    -0.802768719957E-007     0.124550467519E-007
     0.318360000000E+000     0.422227502492E-004     0.240669676420E-004    -0.122445975723E-006     0.262130765841E-007
     0.437461600000E+000     0.572215669429E-004     0.326162931575E-004    -0.165942544135E-006     0.459770990986E-007
     0.563709296000E+000     0.726676041972E-004     0.414205343924E-004    -0.210736052172E-006     0.725820401494E-007
     0.697531853760E+000     0.885470672497E-004     0.504718283324E-004    -0.256786495024E-006     0.106945865712E-006
     0.839383764986E+000     0.104842657708E-003     0.597603148936E-004    -0.304043707353E-006     0.150075046696E-006
     0.989746790885E+000     0.121533352672E-003     0.692740110229E-004    -0.352446722748E-006     0.203070002397E-006
     0.114913159834E+001     0.138594204036E-003     0.789986963004E-004    -0.401923191704E-006     0.267130452917E-006
     0.131807949424E+001     0.155996165030E-003     0.889178140673E-004    -0.452388878588E-006     0.343560602083E-006
     0.149716426389E+001     0.173705951760E-003     0.990123925032E-004    -0.503747260104E-006     0.433774064123E-006
     0.168699411973E+001     0.191685948128E-003     0.109260990433E-003    -0.555889249571E-006     0.539298440229E-006
     0.188821376691E+001     0.209894163024E-003     0.119639672924E-003    -0.608693072770E-006     0.661779445574E-006
     0.210150659292E+001     0.228284248977E-003     0.130122021917E-003    -0.662024322033E-006     0.802984484111E-006
     0.232759698850E+001     0.246805591540E-003     0.140679187178E-003    -0.715736215465E-006     0.964805568193E-006
     0.256725280781E+001     0.265403478474E-003     0.151279982730E-003    -0.769670087575E-006     0.114926148363E-005
     0.282128797628E+001     0.284019357197E-003     0.161891033602E-003    -0.823656135871E-006     0.135849910887E-005
     0.309056525485E+001     0.302591187947E-003     0.172476977130E-003    -0.877514445046E-006     0.159479381054E-005
     0.337599917015E+001     0.321053898636E-003     0.183000722222E-003    -0.931056306044E-006     0.186054885733E-005
     0.367855912035E+001     0.339339945290E-003     0.193423768815E-003    -0.984085841340E-006     0.215829382049E-005
     0.399927266758E+001     0.357379979393E-003     0.203706588254E-003    -0.103640194024E-005     0.249068196309E-005
     0.433922902763E+001     0.375103620242E-003     0.213809063538E-003    -0.108780049870E-005     0.286048666109E-005
     0.469958276929E+001     0.392440326654E-003     0.223690986193E-003    -0.113807694730E-005     0.327059694735E-005
     0.508155773545E+001     0.409320358136E-003     0.233312604137E-003    -0.118702903859E-005     0.372401232419E-005
     0.548645119957E+001     0.425675810924E-003     0.242635212227E-003    -0.123445985168E-005     0.422383704986E-005
     0.591563827155E+001     0.441441709430E-003     0.251621774375E-003    -0.128018095735E-005     0.477327416654E-005
     0.637057656784E+001     0.456557128660E-003     0.260237563336E-003    -0.132401567311E-005     0.537561960114E-005
     0.685281116191E+001     0.470966318490E-003     0.268450801539E-003    -0.136580232362E-005     0.603425673025E-005
     0.736397983162E+001     0.484619796483E-003     0.276233283995E-003    -0.140539740980E-005     0.675265185463E-005
     0.790581862152E+001     0.497475372672E-003     0.283560962423E-003    -0.144267858075E-005     0.753435107104E-005
     0.848016773881E+001     0.509499067708E-003     0.290414468593E-003    -0.147754729635E-005     0.838297905645E-005
     0.908897780314E+001     0.520665885373E-003     0.296779554663E-003    -0.150993106758E-005     0.930224028684E-005
     0.973431647133E+001     0.530960402003E-003     0.302647429142E-003    -0.153978516581E-005     0.102959231950E-004
     0.104183754596E+002     0.540377139095E-003     0.308014969284E-003    -0.156709370338E-005     0.113679077283E-004
     0.111434779872E+002     0.548920691433E-003     0.312884794117E-003    -0.159187000516E-005     0.125221766926E-004
     0.119120866664E+002     0.556605591391E-003     0.317265187093E-003    -0.161415621503E-005     0.137628311691E-004
     0.127268118664E+002     0.563455900521E-003     0.321169863297E-003    -0.163402211151E-005     0.150941101607E-004
     0.135904205784E+002     0.569504531587E-003     0.324617583004E-003    -0.165156314160E-005     0.165204144782E-004
     0.145058458131E+002     0.574792317369E-003     0.327631620900E-003    -0.166689772037E-005     0.180463347151E-004
     0.154761965619E+002     0.579366855851E-003     0.330239107835E-003    -0.168016388197E-005     0.196766829960E-004
     0.165047683556E+002     0.583281174068E-003     0.332470269219E-003    -0.169151540480E-005     0.214165280300E-004
     0.175950544569E+002     0.586592263683E-003     0.334357590299E-003    -0.170111756468E-005     0.232712328676E-004
     0.187507577243E+002     0.589359522432E-003     0.335934927786E-003    -0.170914261505E-005     0.252464945722E-004
     0.199758031878E+002     0.591643276555E-003     0.337236667637E-003    -0.171576550201E-005     0.273483853168E-004
     0.212743513791E+002     0.593503292455E-003     0.338296876700E-003    -0.172115954812E-005     0.295833939349E-004
     0.226508124618E+002     0.594997425444E-003     0.339148532503E-003    -0.172549253379E-005     0.319584672563E-004
     0.241098612095E+002     0.596180457505E-003     0.339822860778E-003    -0.172892332677E-005     0.344810506711E-004
     0.256564528821E+002     0.597103155841E-003     0.340348798829E-003    -0.173159915194E-005     0.371591274997E-004
     0.272958400550E+002     0.597811578217E-003     0.340752599584E-003    -0.173365357683E-005     0.400012569358E-004
     0.290335904583E+002     0.598346634753E-003     0.341057581809E-003    -0.173520524078E-005     0.430166105428E-004
     0.308756058858E+002     0.598743899396E-003     0.341284022656E-003    -0.173635730825E-005     0.462150074923E-004
     0.328281422390E+002     0.599033649504E-003     0.341449180217E-003    -0.173719758356E-005     0.496069489268E-004
     0.348281422390E+002     0.599236329693E-003     0.341564707925E-003    -0.173778535611E-005     0.530825196390E-004
     0.368281422390E+002     0.599374739826E-003     0.341643601701E-003    -0.173818674550E-005     0.565588931300E-004
     0.388281422390E+002     0.599469259989E-003     0.341697478194E-003    -0.173846085397E-005     0.600358148379E-004
     0.408281422390E+002     0.599533807729E-003     0.341734270405E-003    -0.173864804241E-005     0.635131109228E-004
     0.428281422390E+002     0.599577887325E-003     0.341759395775E-003    -0.173877587324E-005     0.669906626692E-004
     0.448281422390E+002     0.599607989244E-003     0.341776553869E-003    -0.173886316881E-005     0.704683890069E-004
     0.468281422390E+002     0.599628545819E-003     0.341788271117E-003    -0.173892278288E-005     0.739462345726E-004
     0.488281422390E+002     0.599642583887E-003     0.341796272815E-003    -0.173896349327E-005     0.774241615592E-004
     0.508281422390E+002     0.599652170471E-003     0.341801737169E-003    -0.173899129437E-005     0.809021441479E-004
     0.528281422390E+002     0.599658717141E-003     0.341805468771E-003    -0.173901027971E-005     0.843801647073E-004
     0.548281422390E+002     0.599663187857E-003     0.341808017078E-003    -0.173902324478E-005     0.878582111969E-004
     0.568281422390E+002     0.599666240905E-003     0.341809757316E-003    -0.173903209862E-005     0.913362753941E-004
     0.588281422390E+002     0.599668325828E-003     0.341810945722E-003    -0.173903814490E-005     0.948143516839E-004
     0.608281422390E+002     0.599669749621E-003     0.341811757284E-003    -0.173904227390E-005     0.982924362317E-004
     0.628281422390E+002     0.599670721928E-003     0.341812311499E-003    -0.173904509359E-005     0.101770526419E-003
     0.648281422390E+002     0.599671385915E-003     0.341812689972E-003    -0.173904701915E-005     0.105248620457E-003
     0.668281422390E+002     0.599671839352E-003     0.341812948431E-003    -0.173904833412E-005     0.108726717125E-003
     0.688281422390E+002     0.599672149003E-003     0.341813124932E-003    -0.173904923211E-005     0.112204815590E-003
     0.708281422390E+002     0.599672360464E-003     0.341813245464E-003    -0.173904984535E-005     0.115682915280E-003
     0.728281422390E+002     0.599672504870E-003     0.341813327776E-003    -0.173905026412E-005     0.119161015809E-003
     0.748281422390E+002     0.599672603485E-003     0.341813383986E-003    -0.173905055011E-005     0.122639116909E-003
     0.768281422390E+002     0.599672670829E-003     0.341813422373E-003    -0.173905074541E-005     0.126117218400E-003
     0.788281422390E+002     0.599672716818E-003     0.341813448586E-003    -0.173905087877E-005     0.129595320157E-003
     0.808281422390E+002     0.599672748224E-003     0.341813466488E-003    -0.173905096985E-005     0.133073422097E-003
     0.828281422390E+002     0.599672769671E-003     0.341813478713E-003    -0.173905103205E-005     0.136551524161E-003
     0.848281422390E+002     0.599672784317E-003     0.341813487061E-003    -0.173905107452E-005     0.140029626310E-003
     0.868281422390E+002     0.599672794319E-003     0.341813492762E-003    -0.173905110353E-005     0.143507728517E-003
     0.888281422390E+002     0.599672801149E-003     0.341813496655E-003    -0.173905112334E-005     0.146985830764E-003
     0.908281422390E+002     0.599672805813E-003     0.341813499313E-003    -0.173905113687E-005     0.150463933038E-003
     0.928281422390E+002     0.599672808998E-003     0.341813501129E-003    -0.173905114611E-005     0.153942035330E-003
     0.948281422390E+002     0.599672811172E-003     0.341813502368E-003    -0.173905115242E-005     0.157420137635E-003
     0.968281422390E+002     0.599672812657E-003     0.341813503214E-003    -0.173905115673E-005     0.160898239948E-003
     0.988281422390E+002     0.599672813670E-003     0.341813503792E-003    -0.173905115968E-005     0.164376342267E-003
     0.100828142239E+003     0.599672814361E-003     0.341813504186E-003    -0.173905116170E-005     0.167854444591E-003
     0.102828142239E+003     0.599672814832E-003     0.341813504454E-003    -0.173905116308E-005     0.171332546917E-003
     0.104828142239E+003     0.599672815152E-003     0.341813504637E-003    -0.173905116403E-005     0.174810649245E-003
     0.106828142239E+003     0.599672815369E-003     0.341813504761E-003    -0.173905116469E-005     0.178288751574E-003
     0.108828142239E+003     0.599672815515E-003     0.341813504844E-003    -0.173905116514E-005     0.181766853905E-003
     0.110828142239E+003     0.599672815612E-003     0.341813504899E-003    -0.173905116547E-005     0.185244956236E-003
     0.112828142239E+003     0.599672815675E-003     0.341813504935E-003    -0.173905116570E-005     0.188723058567E-003
     0.114828142239E+003     0.599672815714E-003     0.341813504957E-003    -0.173905116587E-005     0.192201160899E-003
     0.116828142239E+003     0.599672815735E-003     0.341813504969E-003    -0.173905116601E-005     0.195679263231E-003
     0.118828142239E+003     0.599672815742E-003     0.341813504973E-003    -0.173905116613E-005     0.199157365563E-003
     0.120828142239E+003     0.599672815739E-003     0.341813504971E-003    -0.173905116624E-005     0.202635467896E-003
     0.122828142239E+003     0.599672815727E-003     0.341813504964E-003    -0.173905116635E-005     0.206113570228E-003
     0.124828142239E+003     0.599672815706E-003     0.341813504952E-003    -0.173905116646E-005     0.209591672561E-003
     0.126828142239E+003     0.599672815676E-003     0.341813504935E-003    -0.173905116659E-005     0.213069774894E-003
     0.128828142239E+003     0.599672815636E-003     0.341813504913E-003    -0.173905116673E-005     0.216547877228E-003
     0.130828142239E+003     0.599672815586E-003     0.341813504884E-003    -0.173905116689E-005     0.220025979562E-003
     0.132828142239E+003     0.599672815524E-003     0.341813504849E-003    -0.173905116708E-005     0.223504081896E-003
     0.134828142239E+003     0.599672815448E-003     0.341813504806E-003    -0.173905116730E-005     0.226982184230E-003
     0.136828142239E+003     0.599672815356E-003     0.341813504753E-003    -0.173905116755E-005     0.230460286565E-003
     0.138828142239E+003     0.599672815244E-003     0.341813504689E-003    -0.173905116784E-005     0.233938388901E-003
     0.140828142239E+003     0.599672815110E-003     0.341813504613E-003    -0.173905116818E-005     0.237416491238E-003
     0.142828142239E+003     0.599672814949E-003     0.341813504521E-003    -0.173905116857E-005     0.240894593575E-003
     0.144828142239E+003     0.599672814758E-003     0.341813504412E-003    -0.173905116902E-005     0.244372695913E-003
     0.146828142239E+003     0.599672814529E-003     0.341813504282E-003    -0.173905116954E-005     0.247850798252E-003
     0.148828142239E+003     0.599672814259E-003     0.341813504127E-003    -0.173905117013E-005     0.251328900592E-003
     0.150828142239E+003     0.599672813939E-003     0.341813503945E-003    -0.173905117080E-005     0.254807002934E-003
     0.152828142239E+003     0.599672813561E-003     0.341813503730E-003    -0.173905117157E-005     0.258285105277E-003
     0.154828142239E+003     0.599672813117E-003     0.341813503477E-003    -0.173905117243E-005     0.261763207622E-003
     0.156828142239E+003     0.599672812597E-003     0.341813503180E-003    -0.173905117341E-005     0.265241309969E-003
     0.158828142239E+003     0.599672811988E-003     0.341813502833E-003    -0.173905117451E-005     0.268719412318E-003
     0.160828142239E+003     0.599672811277E-003     0.341813502428E-003    -0.173905117575E-005     0.272197514669E-003
     0.162828142239E+003     0.599672810450E-003     0.341813501957E-003    -0.173905117713E-005     0.275675617023E-003
     0.164828142239E+003     0.599672809490E-003     0.341813501409E-003    -0.173905117866E-005     0.279153719381E-003
     0.166828142239E+003     0.599672808377E-003     0.341813500775E-003    -0.173905118037E-005     0.282631821741E-003
     0.168828142239E+003     0.599672807091E-003     0.341813500042E-003    -0.173905118227E-005     0.286109924106E-003
     0.170828142239E+003     0.599672805608E-003     0.341813499196E-003    -0.173905118436E-005     0.289588026475E-003
     0.172828142239E+003     0.599672803901E-003     0.341813498224E-003    -0.173905118666E-005     0.293066128848E-003
     0.174828142239E+003     0.599672801941E-003     0.341813497106E-003    -0.173905118919E-005     0.296544231226E-003
     0.176828142239E+003     0.599672799695E-003     0.341813495826E-003    -0.173905119196E-005     0.300022333610E-003
     0.178828142239E+003     0.599672797126E-003     0.341813494362E-003    -0.173905119497E-005     0.303500436000E-003
     0.180828142239E+003     0.599672794193E-003     0.341813492690E-003    -0.173905119825E-005     0.306978538397E-003
     0.182828142239E+003     0.599672790853E-003     0.341813490786E-003    -0.173905120180E-005     0.310456640800E-003
     0.184828142239E+003     0.599672787055E-003     0.341813488621E-003    -0.173905120563E-005     0.313934743212E-003
     0.186828142239E+003     0.599672782744E-003     0.341813486164E-003    -0.173905120975E-005     0.317412845631E-003
     0.188828142239E+003     0.599672777860E-003     0.341813483380E-003    -0.173905121417E-005     0.320890948059E-003
     0.190828142239E+003     0.599672772337E-003     0.341813480232E-003    -0.173905121888E-005     0.324369050497E-003
     0.192828142239E+003     0.599672766102E-003     0.341813476678E-003    -0.173905122389E-005     0.327847152945E-003
     0.194828142239E+003     0.599672759076E-003     0.341813472673E-003    -0.173905122919E-005     0.331325255403E-003
     0.196828142239E+003     0.599672751169E-003     0.341813468167E-003    -0.173905123478E-005     0.334803357873E-003
     0.198828142239E+003     0.599672742288E-003     0.341813463104E-003    -0.173905124064E-005     0.338281460354E-003
     0.200828142239E+003     0.599672732328E-003     0.341813457427E-003    -0.173905124675E-005     0.341759562848E-003
     0.202828142239E+003     0.599672721175E-003     0.341813451070E-003    -0.173905125309E-005     0.345237665354E-003
     0.204828142239E+003     0.599672708705E-003     0.341813443962E-003    -0.173905125963E-005     0.348715767873E-003
     0.206828142239E+003     0.599672694784E-003     0.341813436027E-003    -0.173905126631E-005     0.352193870406E-003
     0.208828142239E+003     0.599672679266E-003     0.341813427182E-003    -0.173905127311E-005     0.355671972952E-003
     0.210828142239E+003     0.599672661993E-003     0.341813417336E-003    -0.173905127994E-005     0.359150075512E-003
     0.212828142239E+003     0.599672642793E-003     0.341813406392E-003    -0.173905128674E-005     0.362628178085E-003
     0.214828142239E+003     0.599672621480E-003     0.341813394244E-003    -0.173905129343E-005     0.366106280672E-003
     0.216828142239E+003     0.599672597855E-003     0.341813380778E-003    -0.173905129991E-005     0.369584383272E-003
     0.218828142239E+003     0.599672571702E-003     0.341813365870E-003    -0.173905130605E-005     0.373062485884E-003
     0.220828142239E+003     0.599672542788E-003     0.341813349389E-003    -0.173905131174E-005     0.376540588508E-003
     0.222828142239E+003     0.599672510863E-003     0.341813331192E-003    -0.173905131681E-005     0.380018691141E-003
     0.224828142239E+003     0.599672475658E-003     0.341813311125E-003    -0.173905132109E-005     0.383496793783E-003
     0.226828142239E+003     0.599672436882E-003     0.341813289023E-003    -0.173905132440E-005     0.386974896432E-003
     0.228828142239E+003     0.599672394228E-003     0.341813264710E-003    -0.173905132650E-005     0.390452999085E-003
     0.230828142239E+003     0.599672347362E-003     0.341813237996E-003    -0.173905132717E-005     0.393931101740E-003
     0.232828142239E+003     0.599672295929E-003     0.341813208679E-003    -0.173905132612E-005     0.397409204392E-003
     0.234828142239E+003     0.599672239549E-003     0.341813176543E-003    -0.173905132304E-005     0.400887307038E-003
     0.236828142239E+003     0.599672177816E-003     0.341813141355E-003    -0.173905131761E-005     0.404365409673E-003
     0.238828142239E+003     0.599672110297E-003     0.341813102869E-003    -0.173905130944E-005     0.407843512292E-003
     0.240828142239E+003     0.599672036530E-003     0.341813060822E-003    -0.173905129812E-005     0.411321614888E-003
     0.242828142239E+003     0.599671956024E-003     0.341813014933E-003    -0.173905128321E-005     0.414799717455E-003
     0.244828142239E+003     0.599671868255E-003     0.341812964905E-003    -0.173905126419E-005     0.418277819983E-003
