 #              _____________________  _______________________             #
 #              ___  __ \__  __ \_  / / /_  /___  ____/_  ___/             #
 #              __  / / /_  /_/ /  / / /_  __/_  __/  _____ \              #
 #              _  /_/ /_  _, _// /_/ / / /_ _  /___  ____/ /              #
 #              /_____/ /_/ |_| \____/  \__/ /_____/  /____/               #
 #                                                                         #
  
 #        time                      c  [M/L^3]                   concetration [M/L^3]       concentration flux [M.L^{-2}.T^{-1}]   in    x              directions   cumulative flux
 #-----------------------------------------------------------------------------------------------

     0.000000000000E+000     0.000000000000E+000     0.000000000000E+000     0.000000000000E+000     0.000000000000E+000
     0.100000000000E+000     0.345302255299E-008     0.196822285521E-008     0.100137654036E-010     0.100137654036E-011
     0.206000000000E+000     0.711320411857E-008     0.405452634758E-008     0.206282919438E-010     0.318797548640E-011
     0.318360000000E+000     0.109929714761E-007     0.626599374140E-008     0.318796172808E-010     0.676996928407E-011
     0.437461600000E+000     0.151054966710E-007     0.861013310248E-008     0.438059403459E-010     0.119873268688E-010
     0.563709296000E+000     0.194647416876E-007     0.110949027619E-007     0.564477508941E-010     0.191137253635E-010
     0.697531853760E+000     0.240855057986E-007     0.137287383052E-007     0.698479668162E-010     0.284609589372E-010
     0.839383764986E+000     0.289834757492E-007     0.165205811771E-007     0.840520796729E-010     0.403839070813E-010
     0.989746790885E+000     0.341752789451E-007     0.194799089987E-007     0.991083089407E-010     0.552861323054E-010
     0.114913159834E+001     0.396785398255E-007     0.226167677005E-007     0.115067765494E-009     0.736261859527E-010
     0.131807949424E+001     0.455119396092E-007     0.259418055772E-007     0.131984624867E-009     0.959247106152E-010
     0.149716426389E+001     0.516952796168E-007     0.294663093816E-007     0.149916310889E-009     0.122772438618E-009
     0.168699411973E+001     0.582495483818E-007     0.332022425776E-007     0.168923690308E-009     0.154839198396E-009
     0.188821376691E+001     0.651969927751E-007     0.371622858818E-007     0.189071279048E-009     0.192884054459E-009
     0.210150659292E+001     0.725611933861E-007     0.413598802301E-007     0.210427460820E-009     0.237766722248E-009
     0.232759698850E+001     0.803671444101E-007     0.458092723138E-007     0.233064718789E-009     0.290460416714E-009
     0.256725280781E+001     0.886413383127E-007     0.505255628382E-007     0.257059881107E-009     0.352066313132E-009
     0.282128797628E+001     0.974118555555E-007     0.555247576666E-007     0.282494381111E-009     0.423829820829E-009
     0.309056525485E+001     0.106708459684E-006     0.608238220199E-007     0.309454533084E-009     0.507158895341E-009
     0.337599917015E+001     0.116562698097E-006     0.664407379156E-007     0.338031824483E-009     0.603644642497E-009
     0.367855912035E+001     0.127008008837E-006     0.723945650373E-007     0.368323225629E-009     0.715084499304E-009
     0.399927266758E+001     0.138079833754E-006     0.787055052400E-007     0.400431517888E-009     0.843508311825E-009
     0.433922902763E+001     0.149815738432E-006     0.853949709061E-007     0.434465641453E-009     0.991207669862E-009
     0.469958276929E+001     0.162255539265E-006     0.924856573811E-007     0.470541063869E-009     0.116076890283E-008
     0.508155773545E+001     0.175441438126E-006     0.100001619732E-006     0.508780170566E-009     0.135511019126E-008
     0.548645119957E+001     0.189418165057E-006     0.107968354083E-006     0.549312678666E-009     0.157752330462E-008
     0.591563827155E+001     0.204233129475E-006     0.116412883801E-006     0.592276075477E-009     0.183172053925E-008
     0.637057656784E+001     0.219936580386E-006     0.125363850820E-006     0.637816083120E-009     0.212188750146E-008
     0.685281116191E+001     0.236581776147E-006     0.134851612404E-006     0.686087150827E-009     0.245274246013E-008
     0.736397983162E+001     0.254225164336E-006     0.144908343671E-006     0.737252976574E-009     0.282960308341E-008
     0.790581862152E+001     0.272926572329E-006     0.155568146227E-006     0.791487059754E-009     0.325846147409E-008
     0.848016773881E+001     0.292749409216E-006     0.166867163253E-006     0.848973286729E-009     0.374606853192E-008
     0.908897780314E+001     0.313760879729E-006     0.178843701445E-006     0.909906551215E-009     0.430002879790E-008
     0.973431647133E+001     0.336032210871E-006     0.191538360196E-006     0.974493411527E-009     0.492890707825E-008
     0.104183754596E+002     0.359638892026E-006     0.204994168455E-006     0.104295278688E-008     0.564234830647E-008
     0.111434779872E+002     0.384660929309E-006     0.219256729706E-006     0.111551669500E-008     0.645121228156E-008
     0.119120866664E+002     0.411183115008E-006     0.234374375555E-006     0.119243103352E-008     0.736772512332E-008
     0.127268118664E+002     0.439295313007E-006     0.250398328414E-006     0.127395640772E-008     0.840564951237E-008
     0.135904205784E+002     0.469092761107E-006     0.267382873831E-006     0.136036900721E-008     0.958047603851E-008
     0.145058458131E+002     0.500676391257E-006     0.285385543016E-006     0.145196153465E-008     0.109096382671E-007
     0.154761965619E+002     0.534153168708E-006     0.304467306164E-006     0.154904418925E-008     0.124127544561E-007
     0.165047683556E+002     0.569636451229E-006     0.324692777200E-006     0.165194570856E-008     0.141118992167E-007
     0.175950544569E+002     0.607246369517E-006     0.346130430624E-006     0.176101447160E-008     0.160319088193E-007
     0.187507577243E+002     0.647110230052E-006     0.368852831130E-006     0.187661966715E-008     0.182007243003E-007
     0.199758031878E+002     0.689362941688E-006     0.392936876762E-006     0.199915253089E-008     0.206497770391E-007
     0.212743513791E+002     0.734147467346E-006     0.418464056387E-006     0.212902765530E-008     0.234144220500E-007
     0.226508124618E+002     0.781615302271E-006     0.445520722294E-006     0.226668437659E-008     0.265344248812E-007
     0.241098612095E+002     0.831926980356E-006     0.474198378803E-006     0.241258824303E-008     0.300545087360E-007
     0.256564528821E+002     0.885252610165E-006     0.504593987794E-006     0.256723256948E-008     0.340249692495E-007
     0.272958400550E+002     0.941772442333E-006     0.536810292130E-006     0.273114008277E-008     0.385023652686E-007
     0.290335904583E+002     0.100167747014E-005     0.570956157981E-006     0.290486466341E-008     0.435502950090E-007
     0.308756058858E+002     0.106517006515E-005     0.607146937137E-006     0.308899318894E-008     0.492402681185E-007
     0.328281422390E+002     0.113246464986E-005     0.645504850422E-006     0.328414748460E-008     0.556526854713E-007
     0.348281422390E+002     0.120138714196E-005     0.684790670919E-006     0.348402271169E-008     0.626207308947E-007
     0.368281422390E+002     0.127030169758E-005     0.724071967622E-006     0.368387492299E-008     0.699884807406E-007
     0.388281422390E+002     0.133920831764E-005     0.763348741052E-006     0.388370412114E-008     0.777558889829E-007
     0.408281422390E+002     0.140810700304E-005     0.802620991730E-006     0.408351030880E-008     0.859229096005E-007
     0.428281422390E+002     0.147699775470E-005     0.841888720177E-006     0.428329348862E-008     0.944894965778E-007
     0.448281422390E+002     0.154588057353E-005     0.881151926914E-006     0.448305366324E-008     0.103455603904E-006
     0.468281422390E+002     0.161475546046E-005     0.920410612461E-006     0.468279083533E-008     0.112821185575E-006
     0.488281422390E+002     0.168362241638E-005     0.959664777339E-006     0.488250500751E-008     0.122586195590E-006
     0.508281422390E+002     0.175248144222E-005     0.998914422068E-006     0.508219618245E-008     0.132750587955E-006
     0.528281422390E+002     0.182133253889E-005     0.103815954717E-005     0.528186436279E-008     0.143314316680E-006
     0.548281422390E+002     0.189017570730E-005     0.107740015316E-005     0.548150955118E-008     0.154277335783E-006
     0.568281422390E+002     0.195901094837E-005     0.111663624057E-005     0.568113175027E-008     0.165639599283E-006
     0.588281422390E+002     0.202783826300E-005     0.115586780991E-005     0.588073096270E-008     0.177401061209E-006
     0.608281422390E+002     0.209665765211E-005     0.119509486170E-005     0.608030719112E-008     0.189561675591E-006
     0.628281422390E+002     0.216546911661E-005     0.123431739647E-005     0.627986043817E-008     0.202121396467E-006
     0.648281422390E+002     0.223427265742E-005     0.127353541473E-005     0.647939070652E-008     0.215080177880E-006
     0.668281422390E+002     0.230306827545E-005     0.131274891700E-005     0.667889799879E-008     0.228437973878E-006
     0.688281422390E+002     0.237185597160E-005     0.135195790381E-005     0.687838231764E-008     0.242194738513E-006
     0.708281422390E+002     0.244063574680E-005     0.139116237567E-005     0.707784366570E-008     0.256350425845E-006
     0.728281422390E+002     0.250940760195E-005     0.143036233311E-005     0.727728204564E-008     0.270904989936E-006
     0.748281422390E+002     0.257817153796E-005     0.146955777664E-005     0.747669746008E-008     0.285858384856E-006
     0.768281422390E+002     0.264692755575E-005     0.150874870678E-005     0.767608991168E-008     0.301210564679E-006
     0.788281422390E+002     0.271567565624E-005     0.154793512406E-005     0.787545940308E-008     0.316961483486E-006
     0.808281422390E+002     0.278441584032E-005     0.158711702898E-005     0.807480593693E-008     0.333111095359E-006
     0.828281422390E+002     0.285314810892E-005     0.162629442208E-005     0.827412951586E-008     0.349659354391E-006
     0.848281422390E+002     0.292187246294E-005     0.166546730387E-005     0.847343014252E-008     0.366606214676E-006
     0.868281422390E+002     0.299058890330E-005     0.170463567488E-005     0.867270781955E-008     0.383951630315E-006
     0.888281422390E+002     0.305929743090E-005     0.174379953561E-005     0.887196254960E-008     0.401695555414E-006
     0.908281422390E+002     0.312799804666E-005     0.178295888660E-005     0.907119433531E-008     0.419837944085E-006
     0.928281422390E+002     0.319669075149E-005     0.182211372835E-005     0.927040317932E-008     0.438378750444E-006
     0.948281422390E+002     0.326537554630E-005     0.186126406139E-005     0.946958908427E-008     0.457317928612E-006
     0.968281422390E+002     0.333405243200E-005     0.190040988624E-005     0.966875205280E-008     0.476655432718E-006
     0.988281422390E+002     0.340272140951E-005     0.193955120342E-005     0.986789208756E-008     0.496391216893E-006
     0.100828142239E+003     0.347138247972E-005     0.197868801344E-005     0.100670091912E-007     0.516525235275E-006
     0.102828142239E+003     0.354003564356E-005     0.201782031683E-005     0.102661033663E-007     0.537057442008E-006
     0.104828142239E+003     0.360868090193E-005     0.205694811410E-005     0.104651746156E-007     0.557987791239E-006
     0.106828142239E+003     0.367731825574E-005     0.209607140577E-005     0.106642229417E-007     0.579316237122E-006
     0.108828142239E+003     0.374594770591E-005     0.213519019237E-005     0.108632483471E-007     0.601042733817E-006
     0.110828142239E+003     0.381456925334E-005     0.217430447441E-005     0.110622508347E-007     0.623167235486E-006
     0.112828142239E+003     0.388318289895E-005     0.221341425240E-005     0.112612304070E-007     0.645689696300E-006
     0.114828142239E+003     0.395178864364E-005     0.225251952688E-005     0.114601870666E-007     0.668610070433E-006
     0.116828142239E+003     0.402038648832E-005     0.229162029835E-005     0.116591208161E-007     0.691928312065E-006
     0.118828142239E+003     0.408897643391E-005     0.233071656733E-005     0.118580316583E-007     0.715644375382E-006
     0.120828142239E+003     0.415755848131E-005     0.236980833435E-005     0.120569195958E-007     0.739758214574E-006
     0.122828142239E+003     0.422613263143E-005     0.240889559992E-005     0.122557846312E-007     0.764269783836E-006
     0.124828142239E+003     0.429469888519E-005     0.244797836456E-005     0.124546267670E-007     0.789179037370E-006
     0.126828142239E+003     0.436325724348E-005     0.248705662878E-005     0.126534460061E-007     0.814485929382E-006
     0.128828142239E+003     0.443180770723E-005     0.252613039312E-005     0.128522423510E-007     0.840190414084E-006
     0.130828142239E+003     0.450035027733E-005     0.256519965808E-005     0.130510158043E-007     0.866292445693E-006
     0.132828142239E+003     0.456888495470E-005     0.260426442418E-005     0.132497663686E-007     0.892791978430E-006
     0.134828142239E+003     0.463741174025E-005     0.264332469194E-005     0.134484940467E-007     0.919688966523E-006
     0.136828142239E+003     0.470593063489E-005     0.268238046188E-005     0.136471988412E-007     0.946983364206E-006
     0.138828142239E+003     0.477444163951E-005     0.272143173452E-005     0.138458807546E-007     0.974675125715E-006
     0.140828142239E+003     0.484294475505E-005     0.276047851038E-005     0.140445397896E-007     0.100276420529E-005
     0.142828142239E+003     0.491143998239E-005     0.279952078996E-005     0.142431759489E-007     0.103125055719E-005
     0.144828142239E+003     0.497992732245E-005     0.283855857380E-005     0.144417892351E-007     0.106013413566E-005
     0.146828142239E+003     0.504840677614E-005     0.287759186240E-005     0.146403796508E-007     0.108941489496E-005
     0.148828142239E+003     0.511687834437E-005     0.291662065629E-005     0.148389471987E-007     0.111909278936E-005
     0.150828142239E+003     0.518534202804E-005     0.295564495598E-005     0.150374918813E-007     0.114916777312E-005
     0.152828142239E+003     0.525379782807E-005     0.299466476200E-005     0.152360137014E-007     0.117963980053E-005
     0.154828142239E+003     0.532224574535E-005     0.303368007485E-005     0.154345126615E-007     0.121050882585E-005
     0.156828142239E+003     0.539068578080E-005     0.307269089506E-005     0.156329887643E-007     0.124177480338E-005
     0.158828142239E+003     0.545911793533E-005     0.311169722314E-005     0.158314420124E-007     0.127343768740E-005
     0.160828142239E+003     0.552754220983E-005     0.315069905961E-005     0.160298724085E-007     0.130549743222E-005
     0.162828142239E+003     0.559595860523E-005     0.318969640498E-005     0.162282799552E-007     0.133795399213E-005
     0.164828142239E+003     0.566436712243E-005     0.322868925978E-005     0.164266646550E-007     0.137080732144E-005
     0.166828142239E+003     0.573276776233E-005     0.326767762453E-005     0.166250265107E-007     0.140405737446E-005
     0.168828142239E+003     0.580116052584E-005     0.330666149973E-005     0.168233655249E-007     0.143770410551E-005
     0.170828142239E+003     0.586954541387E-005     0.334564088591E-005     0.170216817002E-007     0.147174746891E-005
     0.172828142239E+003     0.593792242733E-005     0.338461578358E-005     0.172199750392E-007     0.150618741899E-005
     0.174828142239E+003     0.600629156711E-005     0.342358619325E-005     0.174182455446E-007     0.154102391008E-005
     0.176828142239E+003     0.607465283414E-005     0.346255211546E-005     0.176164932190E-007     0.157625689652E-005
     0.178828142239E+003     0.614300622931E-005     0.350151355071E-005     0.178147180650E-007     0.161188633265E-005
     0.180828142239E+003     0.621135175354E-005     0.354047049952E-005     0.180129200853E-007     0.164791217282E-005
     0.182828142239E+003     0.627968940772E-005     0.357942296240E-005     0.182110992824E-007     0.168433437138E-005
     0.184828142239E+003     0.634801919276E-005     0.361837093988E-005     0.184092556590E-007     0.172115288270E-005
     0.186828142239E+003     0.641634110958E-005     0.365731443246E-005     0.186073892178E-007     0.175836766114E-005
     0.188828142239E+003     0.648465515907E-005     0.369625344067E-005     0.188054999613E-007     0.179597866106E-005
     0.190828142239E+003     0.655296134215E-005     0.373518796503E-005     0.190035878922E-007     0.183398583684E-005
     0.192828142239E+003     0.662125965971E-005     0.377411800604E-005     0.192016530132E-007     0.187238914287E-005
     0.194828142239E+003     0.668955011267E-005     0.381304356422E-005     0.193996953267E-007     0.191118853352E-005
     0.196828142239E+003     0.675783270193E-005     0.385196464010E-005     0.195977148356E-007     0.195038396320E-005
     0.198828142239E+003     0.682610742839E-005     0.389088123418E-005     0.197957115423E-007     0.198997538628E-005
     0.200828142239E+003     0.689437429297E-005     0.392979334699E-005     0.199936854496E-007     0.202996275718E-005
     0.202828142239E+003     0.696263329656E-005     0.396870097904E-005     0.201916365600E-007     0.207034603030E-005
     0.204828142239E+003     0.703088444007E-005     0.400760413084E-005     0.203895648762E-007     0.211112516005E-005
     0.206828142239E+003     0.709912772440E-005     0.404650280291E-005     0.205874704008E-007     0.215230010085E-005
     0.208828142239E+003     0.716736315047E-005     0.408539699577E-005     0.207853531364E-007     0.219387080713E-005
     0.210828142239E+003     0.723559071917E-005     0.412428670993E-005     0.209832130856E-007     0.223583723330E-005
     0.212828142239E+003     0.730381043142E-005     0.416317194591E-005     0.211810502511E-007     0.227819933380E-005
     0.214828142239E+003     0.737202228811E-005     0.420205270422E-005     0.213788646355E-007     0.232095706307E-005
     0.216828142239E+003     0.744022629015E-005     0.424092898538E-005     0.215766562414E-007     0.236411037555E-005
     0.218828142239E+003     0.750842243844E-005     0.427980078991E-005     0.217744250715E-007     0.240765922570E-005
     0.220828142239E+003     0.757661073390E-005     0.431866811832E-005     0.219721711283E-007     0.245160356795E-005
     0.222828142239E+003     0.764479117741E-005     0.435753097113E-005     0.221698944145E-007     0.249594335678E-005
     0.224828142239E+003     0.771296376990E-005     0.439638934884E-005     0.223675949327E-007     0.254067854665E-005
     0.226828142239E+003     0.778112851225E-005     0.443524325198E-005     0.225652726855E-007     0.258580909202E-005
     0.228828142239E+003     0.784928540539E-005     0.447409268107E-005     0.227629276756E-007     0.263133494737E-005
     0.230828142239E+003     0.791743445020E-005     0.451293763661E-005     0.229605599056E-007     0.267725606718E-005
     0.232828142239E+003     0.798557564759E-005     0.455177811913E-005     0.231581693780E-007     0.272357240594E-005
     0.234828142239E+003     0.805370899847E-005     0.459061412913E-005     0.233557560956E-007     0.277028391813E-005
     0.236828142239E+003     0.812183450374E-005     0.462944566713E-005     0.235533200608E-007     0.281739055825E-005
     0.238828142239E+003     0.818995216430E-005     0.466827273365E-005     0.237508612765E-007     0.286489228080E-005
     0.240828142239E+003     0.825806198106E-005     0.470709532920E-005     0.239483797451E-007     0.291278904029E-005
     0.242828142239E+003     0.832616395492E-005     0.474591345430E-005     0.241458754693E-007     0.296108079123E-005
     0.244828142239E+003     0.839425808678E-005     0.478472710947E-005     0.243433484517E-007     0.300976748813E-005
