 #              _____________________  _______________________             #
 #              ___  __ \__  __ \_  / / /_  /___  ____/_  ___/             #
 #              __  / / /_  /_/ /  / / /_  __/_  __/  _____ \              #
 #              _  /_/ /_  _, _// /_/ / / /_ _  /___  ____/ /              #
 #              /_____/ /_/ |_| \____/  \__/ /_____/  /____/               #
 #                                                                         #
  
 #        time                      c  [M/L^3]                   concetration [M/L^3]       concentration flux [M.L^{-2}.T^{-1}]   in    x              directions   cumulative flux
 #-----------------------------------------------------------------------------------------------

     0.000000000000E+000     0.000000000000E+000     0.000000000000E+000     0.000000000000E+000     0.000000000000E+000
     0.100000000000E+000     0.944045464685E-008     0.538105914871E-008    -0.273773184759E-010     0.273773184759E-011
     0.206000000000E+000     0.189481734787E-007     0.108004588828E-007    -0.549497030881E-010     0.856240037492E-011
     0.318360000000E+000     0.284950626690E-007     0.162421857213E-007    -0.826356817388E-010     0.178473455751E-010
     0.437461600000E+000     0.380510576926E-007     0.216891028848E-007    -0.110348067307E-009     0.309899769483E-010
     0.563709296000E+000     0.475843048281E-007     0.271230537520E-007    -0.137994484001E-009     0.484114626141E-010
     0.697531853760E+000     0.570613948682E-007     0.325249950749E-007    -0.165478045117E-009     0.705561578648E-010
     0.839383764986E+000     0.664476510405E-007     0.378751610931E-007    -0.192698188017E-009     0.978907641248E-010
     0.989746790885E+000     0.757074718024E-007     0.431532589274E-007    -0.219551668227E-009     0.130903217301E-009
     0.114913159834E+001     0.848047275318E-007     0.483386946931E-007    -0.245933709842E-009     0.170101314290E-009
     0.131807949424E+001     0.937032082054E-007     0.534108286771E-007    -0.271739303796E-009     0.216011097900E-009
     0.149716426389E+001     0.102367116970E-006     0.583492566730E-007    -0.296864639213E-009     0.269175033432E-009
     0.168699411973E+001     0.110761602114E-006     0.631341132051E-007    -0.321208646131E-009     0.330150024419E-009
     0.188821376691E+001     0.118853317429E-006     0.677463909345E-007    -0.344674620543E-009     0.399505329958E-009
     0.210150659292E+001     0.126610998418E-006     0.721682690981E-007    -0.367171895410E-009     0.477820461163E-009
     0.232759698850E+001     0.134006039383E-006     0.763834424483E-007    -0.388617514210E-009     0.565683148679E-009
     0.256725280781E+001     0.141013054295E-006     0.803774409483E-007    -0.408937857455E-009     0.663687485954E-009
     0.282128797628E+001     0.147610402654E-006     0.841379295131E-007    -0.428070167697E-009     0.772432363121E-009
     0.309056525485E+001     0.153780660528E-006     0.876549765007E-007    -0.445963915530E-009     0.892520312639E-009
     0.337599917015E+001     0.159511016747E-006     0.909212795455E-007    -0.462581948564E-009     0.102455688936E-008
     0.367855912035E+001     0.164793575042E-006     0.939323377737E-007    -0.477901367620E-009     0.116915070335E-008
     0.399927266758E+001     0.169625544812E-006     0.966865605428E-007    -0.491914079954E-009     0.132691421286E-008
     0.433922902763E+001     0.174009306343E-006     0.991853046157E-007    -0.504626988394E-009     0.149846536702E-008
     0.469958276929E+001     0.177952340570E-006     0.101432834125E-006    -0.516061787653E-009     0.168443016313E-008
     0.508155773545E+001     0.181467018836E-006     0.103436200736E-006    -0.526254354623E-009     0.188544615243E-008
     0.548645119957E+001     0.184570254307E-006     0.105205044955E-006    -0.535253737490E-009     0.210216689239E-008
     0.591563827155E+001     0.187283023446E-006     0.106751323364E-006    -0.543120767994E-009     0.233526730453E-008
     0.637057656784E+001     0.189629772775E-006     0.108088970481E-006    -0.549926341045E-009     0.258544985721E-008
     0.685281116191E+001     0.191637732648E-006     0.109233507609E-006    -0.555749424678E-009     0.285345145543E-008
     0.736397983162E+001     0.193336165322E-006     0.110201614233E-006    -0.560674879432E-009     0.314005088769E-008
     0.790581862152E+001     0.194755578728E-006     0.111010679875E-006    -0.564791178309E-009     0.344607665629E-008
     0.848016773881E+001     0.195926939703E-006     0.111678355631E-006    -0.568188125139E-009     0.377241500442E-008
     0.908897780314E+001     0.196880920521E-006     0.112222124697E-006    -0.570954669511E-009     0.412001795349E-008
     0.973431647133E+001     0.197647210429E-006     0.112658909944E-006    -0.573176910243E-009     0.448991117738E-008
     0.104183754596E+002     0.198253919523E-006     0.113004734128E-006    -0.574936366615E-009     0.488320156665E-008
     0.111434779872E+002     0.198727095974E-006     0.113274444705E-006    -0.576308578325E-009     0.530108437346E-008
     0.119120866664E+002     0.199090369961E-006     0.113481510878E-006    -0.577362072887E-009     0.574484987374E-008
     0.127268118664E+002     0.199364729197E-006     0.113637895642E-006    -0.578157714671E-009     0.621588953345E-008
     0.135904205784E+002     0.199568422590E-006     0.113754000876E-006    -0.578748425509E-009     0.671570171577E-008
     0.145058458131E+002     0.199716980909E-006     0.113838679118E-006    -0.579179244635E-009     0.724589701172E-008
     0.154761965619E+002     0.199823337208E-006     0.113899302209E-006    -0.579487677904E-009     0.780820331389E-008
     0.165047683556E+002     0.199898025483E-006     0.113941874525E-006    -0.579704273900E-009     0.840447077872E-008
     0.175950544569E+002     0.199949433983E-006     0.113971177370E-006    -0.579853358550E-009     0.903667683636E-008
     0.187507577243E+002     0.199984089710E-006     0.113990931135E-006    -0.579953860159E-009     0.970693140749E-008
     0.199758031878E+002     0.200006952612E-006     0.114003962989E-006    -0.580020162574E-009     0.104174824764E-007
     0.212743513791E+002     0.200021701436E-006     0.114012369819E-006    -0.580062934165E-009     0.111707221504E-007
     0.226508124618E+002     0.200030997561E-006     0.114017668610E-006    -0.580089892928E-009     0.119691933125E-007
     0.241098612095E+002     0.200036717741E-006     0.114020929113E-006    -0.580106481450E-009     0.128155969478E-007
     0.256564528821E+002     0.200040151118E-006     0.114022886137E-006    -0.580116438242E-009     0.137128002003E-007
     0.272958400550E+002     0.200042159634E-006     0.114024030991E-006    -0.580122262938E-009     0.146638451969E-007
     0.290335904583E+002     0.200043303846E-006     0.114024683192E-006    -0.580125581152E-009     0.156719586595E-007
     0.308756058858E+002     0.200043938078E-006     0.114025044705E-006    -0.580127420428E-009     0.167405623178E-007
     0.328281422390E+002     0.200044279848E-006     0.114025239513E-006    -0.580128411559E-009     0.178732841309E-007
     0.348281422390E+002     0.200044455714E-006     0.114025339757E-006    -0.580128921572E-009     0.190335419740E-007
     0.368281422390E+002     0.200044544064E-006     0.114025390116E-006    -0.580129177785E-009     0.201938003296E-007
     0.388281422390E+002     0.200044588448E-006     0.114025415415E-006    -0.580129306498E-009     0.213540589426E-007
     0.408281422390E+002     0.200044610744E-006     0.114025428124E-006    -0.580129371158E-009     0.225143176849E-007
     0.428281422390E+002     0.200044621945E-006     0.114025434509E-006    -0.580129403642E-009     0.236745764922E-007
     0.448281422390E+002     0.200044627573E-006     0.114025437716E-006    -0.580129419961E-009     0.248348353321E-007
     0.468281422390E+002     0.200044630399E-006     0.114025439328E-006    -0.580129428157E-009     0.259950941884E-007
     0.488281422390E+002     0.200044631819E-006     0.114025440137E-006    -0.580129432276E-009     0.271553530530E-007
     0.508281422390E+002     0.200044632533E-006     0.114025440544E-006    -0.580129434345E-009     0.283156119217E-007
     0.528281422390E+002     0.200044632891E-006     0.114025440748E-006    -0.580129435384E-009     0.294758707924E-007
     0.548281422390E+002     0.200044633071E-006     0.114025440851E-006    -0.580129435905E-009     0.306361296642E-007
     0.568281422390E+002     0.200044633162E-006     0.114025440902E-006    -0.580129436168E-009     0.317963885366E-007
     0.588281422390E+002     0.200044633207E-006     0.114025440928E-006    -0.580129436300E-009     0.329566474092E-007
     0.608281422390E+002     0.200044633230E-006     0.114025440941E-006    -0.580129436366E-009     0.341169062819E-007
     0.628281422390E+002     0.200044633241E-006     0.114025440948E-006    -0.580129436399E-009     0.352771651547E-007
     0.648281422390E+002     0.200044633247E-006     0.114025440951E-006    -0.580129436416E-009     0.364374240275E-007
     0.668281422390E+002     0.200044633250E-006     0.114025440953E-006    -0.580129436424E-009     0.375976829004E-007
     0.688281422390E+002     0.200044633252E-006     0.114025440953E-006    -0.580129436428E-009     0.387579417732E-007
     0.708281422390E+002     0.200044633252E-006     0.114025440954E-006    -0.580129436432E-009     0.399182006461E-007
     0.728281422390E+002     0.200044633253E-006     0.114025440954E-006    -0.580129436431E-009     0.410784595190E-007
     0.748281422390E+002     0.200044633253E-006     0.114025440954E-006    -0.580129436432E-009     0.422387183918E-007
     0.768281422390E+002     0.200044633253E-006     0.114025440954E-006    -0.580129436432E-009     0.433989772647E-007
     0.788281422390E+002     0.200044633253E-006     0.114025440954E-006    -0.580129436432E-009     0.445592361376E-007
     0.808281422390E+002     0.200044633253E-006     0.114025440954E-006    -0.580129436432E-009     0.457194950104E-007
     0.828281422390E+002     0.200044633253E-006     0.114025440954E-006    -0.580129436432E-009     0.468797538833E-007
     0.848281422390E+002     0.200044633253E-006     0.114025440954E-006    -0.580129436432E-009     0.480400127562E-007
     0.868281422390E+002     0.200044633253E-006     0.114025440954E-006    -0.580129436432E-009     0.492002716290E-007
     0.888281422390E+002     0.200044633253E-006     0.114025440954E-006    -0.580129436432E-009     0.503605305019E-007
     0.908281422390E+002     0.200044633253E-006     0.114025440954E-006    -0.580129436432E-009     0.515207893747E-007
     0.928281422390E+002     0.200044633253E-006     0.114025440954E-006    -0.580129436432E-009     0.526810482476E-007
     0.948281422390E+002     0.200044633253E-006     0.114025440954E-006    -0.580129436432E-009     0.538413071205E-007
     0.968281422390E+002     0.200044633253E-006     0.114025440954E-006    -0.580129436432E-009     0.550015659933E-007
     0.988281422390E+002     0.200044633253E-006     0.114025440954E-006    -0.580129436432E-009     0.561618248662E-007
     0.100828142239E+003     0.200044633253E-006     0.114025440954E-006    -0.580129436432E-009     0.573220837391E-007
     0.102828142239E+003     0.200044633253E-006     0.114025440954E-006    -0.580129436432E-009     0.584823426119E-007
     0.104828142239E+003     0.200044633253E-006     0.114025440954E-006    -0.580129436432E-009     0.596426014848E-007
     0.106828142239E+003     0.200044633253E-006     0.114025440954E-006    -0.580129436432E-009     0.608028603577E-007
     0.108828142239E+003     0.200044633253E-006     0.114025440954E-006    -0.580129436432E-009     0.619631192305E-007
     0.110828142239E+003     0.200044633253E-006     0.114025440954E-006    -0.580129436432E-009     0.631233781034E-007
     0.112828142239E+003     0.200044633253E-006     0.114025440954E-006    -0.580129436432E-009     0.642836369763E-007
     0.114828142239E+003     0.200044633253E-006     0.114025440954E-006    -0.580129436432E-009     0.654438958491E-007
     0.116828142239E+003     0.200044633253E-006     0.114025440954E-006    -0.580129436432E-009     0.666041547220E-007
     0.118828142239E+003     0.200044633253E-006     0.114025440954E-006    -0.580129436432E-009     0.677644135949E-007
     0.120828142239E+003     0.200044633253E-006     0.114025440954E-006    -0.580129436432E-009     0.689246724677E-007
     0.122828142239E+003     0.200044633253E-006     0.114025440954E-006    -0.580129436432E-009     0.700849313406E-007
     0.124828142239E+003     0.200044633253E-006     0.114025440954E-006    -0.580129436432E-009     0.712451902134E-007
     0.126828142239E+003     0.200044633253E-006     0.114025440954E-006    -0.580129436432E-009     0.724054490863E-007
     0.128828142239E+003     0.200044633253E-006     0.114025440954E-006    -0.580129436432E-009     0.735657079592E-007
     0.130828142239E+003     0.200044633253E-006     0.114025440954E-006    -0.580129436432E-009     0.747259668320E-007
     0.132828142239E+003     0.200044633253E-006     0.114025440954E-006    -0.580129436432E-009     0.758862257049E-007
     0.134828142239E+003     0.200044633253E-006     0.114025440954E-006    -0.580129436432E-009     0.770464845778E-007
     0.136828142239E+003     0.200044633253E-006     0.114025440954E-006    -0.580129436432E-009     0.782067434506E-007
     0.138828142239E+003     0.200044633253E-006     0.114025440954E-006    -0.580129436432E-009     0.793670023235E-007
     0.140828142239E+003     0.200044633253E-006     0.114025440954E-006    -0.580129436432E-009     0.805272611964E-007
     0.142828142239E+003     0.200044633253E-006     0.114025440954E-006    -0.580129436432E-009     0.816875200692E-007
     0.144828142239E+003     0.200044633253E-006     0.114025440954E-006    -0.580129436432E-009     0.828477789421E-007
     0.146828142239E+003     0.200044633253E-006     0.114025440954E-006    -0.580129436432E-009     0.840080378150E-007
     0.148828142239E+003     0.200044633253E-006     0.114025440954E-006    -0.580129436432E-009     0.851682966878E-007
     0.150828142239E+003     0.200044633253E-006     0.114025440954E-006    -0.580129436432E-009     0.863285555607E-007
     0.152828142239E+003     0.200044633253E-006     0.114025440954E-006    -0.580129436432E-009     0.874888144335E-007
     0.154828142239E+003     0.200044633253E-006     0.114025440954E-006    -0.580129436432E-009     0.886490733064E-007
     0.156828142239E+003     0.200044633253E-006     0.114025440954E-006    -0.580129436432E-009     0.898093321793E-007
     0.158828142239E+003     0.200044633253E-006     0.114025440954E-006    -0.580129436432E-009     0.909695910521E-007
     0.160828142239E+003     0.200044633253E-006     0.114025440954E-006    -0.580129436432E-009     0.921298499250E-007
     0.162828142239E+003     0.200044633253E-006     0.114025440954E-006    -0.580129436432E-009     0.932901087979E-007
     0.164828142239E+003     0.200044633253E-006     0.114025440954E-006    -0.580129436432E-009     0.944503676707E-007
     0.166828142239E+003     0.200044633253E-006     0.114025440954E-006    -0.580129436432E-009     0.956106265436E-007
     0.168828142239E+003     0.200044633253E-006     0.114025440954E-006    -0.580129436432E-009     0.967708854165E-007
     0.170828142239E+003     0.200044633253E-006     0.114025440954E-006    -0.580129436432E-009     0.979311442893E-007
     0.172828142239E+003     0.200044633253E-006     0.114025440954E-006    -0.580129436432E-009     0.990914031622E-007
     0.174828142239E+003     0.200044633253E-006     0.114025440954E-006    -0.580129436432E-009     0.100251662035E-006
     0.176828142239E+003     0.200044633253E-006     0.114025440954E-006    -0.580129436432E-009     0.101411920908E-006
     0.178828142239E+003     0.200044633253E-006     0.114025440954E-006    -0.580129436432E-009     0.102572179781E-006
     0.180828142239E+003     0.200044633253E-006     0.114025440954E-006    -0.580129436432E-009     0.103732438654E-006
     0.182828142239E+003     0.200044633253E-006     0.114025440954E-006    -0.580129436432E-009     0.104892697527E-006
     0.184828142239E+003     0.200044633253E-006     0.114025440954E-006    -0.580129436432E-009     0.106052956399E-006
     0.186828142239E+003     0.200044633253E-006     0.114025440954E-006    -0.580129436432E-009     0.107213215272E-006
     0.188828142239E+003     0.200044633253E-006     0.114025440954E-006    -0.580129436432E-009     0.108373474145E-006
     0.190828142239E+003     0.200044633253E-006     0.114025440954E-006    -0.580129436432E-009     0.109533733018E-006
     0.192828142239E+003     0.200044633253E-006     0.114025440954E-006    -0.580129436432E-009     0.110693991891E-006
     0.194828142239E+003     0.200044633253E-006     0.114025440954E-006    -0.580129436432E-009     0.111854250764E-006
     0.196828142239E+003     0.200044633253E-006     0.114025440954E-006    -0.580129436432E-009     0.113014509637E-006
     0.198828142239E+003     0.200044633253E-006     0.114025440954E-006    -0.580129436432E-009     0.114174768509E-006
     0.200828142239E+003     0.200044633253E-006     0.114025440954E-006    -0.580129436432E-009     0.115335027382E-006
     0.202828142239E+003     0.200044633253E-006     0.114025440954E-006    -0.580129436432E-009     0.116495286255E-006
     0.204828142239E+003     0.200044633253E-006     0.114025440954E-006    -0.580129436432E-009     0.117655545128E-006
     0.206828142239E+003     0.200044633253E-006     0.114025440954E-006    -0.580129436432E-009     0.118815804001E-006
     0.208828142239E+003     0.200044633253E-006     0.114025440954E-006    -0.580129436432E-009     0.119976062874E-006
     0.210828142239E+003     0.200044633253E-006     0.114025440954E-006    -0.580129436432E-009     0.121136321747E-006
     0.212828142239E+003     0.200044633253E-006     0.114025440954E-006    -0.580129436432E-009     0.122296580619E-006
     0.214828142239E+003     0.200044633253E-006     0.114025440954E-006    -0.580129436432E-009     0.123456839492E-006
     0.216828142239E+003     0.200044633253E-006     0.114025440954E-006    -0.580129436432E-009     0.124617098365E-006
     0.218828142239E+003     0.200044633253E-006     0.114025440954E-006    -0.580129436432E-009     0.125777357238E-006
     0.220828142239E+003     0.200044633253E-006     0.114025440954E-006    -0.580129436432E-009     0.126937616111E-006
     0.222828142239E+003     0.200044633253E-006     0.114025440954E-006    -0.580129436432E-009     0.128097874984E-006
     0.224828142239E+003     0.200044633253E-006     0.114025440954E-006    -0.580129436432E-009     0.129258133857E-006
     0.226828142239E+003     0.200044633253E-006     0.114025440954E-006    -0.580129436432E-009     0.130418392730E-006
     0.228828142239E+003     0.200044633253E-006     0.114025440954E-006    -0.580129436432E-009     0.131578651602E-006
     0.230828142239E+003     0.200044633253E-006     0.114025440954E-006    -0.580129436432E-009     0.132738910475E-006
     0.232828142239E+003     0.200044633253E-006     0.114025440954E-006    -0.580129436432E-009     0.133899169348E-006
     0.234828142239E+003     0.200044633253E-006     0.114025440954E-006    -0.580129436432E-009     0.135059428221E-006
     0.236828142239E+003     0.200044633253E-006     0.114025440954E-006    -0.580129436432E-009     0.136219687094E-006
     0.238828142239E+003     0.200044633253E-006     0.114025440954E-006    -0.580129436432E-009     0.137379945967E-006
     0.240828142239E+003     0.200044633253E-006     0.114025440954E-006    -0.580129436432E-009     0.138540204840E-006
     0.242828142239E+003     0.200044633253E-006     0.114025440954E-006    -0.580129436432E-009     0.139700463712E-006
     0.244828142239E+003     0.200044633253E-006     0.114025440954E-006    -0.580129436432E-009     0.140860722585E-006
