 #              _____________________  _______________________             #
 #              ___  __ \__  __ \_  / / /_  /___  ____/_  ___/             #
 #              __  / / /_  /_/ /  / / /_  __/_  __/  _____ \              #
 #              _  /_/ /_  _, _// /_/ / / /_ _  /___  ____/ /              #
 #              /_____/ /_/ |_| \____/  \__/ /_____/  /____/               #
 #                                                                         #
  
 #        time                      c  [M/L^3]                   concetration [M/L^3]       concentration flux [M.L^{-2}.T^{-1}]   in    x              directions   cumulative flux
 #-----------------------------------------------------------------------------------------------

     0.000000000000E+000     0.000000000000E+000     0.000000000000E+000     0.000000000000E+000     0.000000000000E+000
     0.100000000000E+000     0.447986040889E-005     0.255352043307E-005     0.129915951858E-007     0.129915951858E-008
     0.206000000000E+000     0.919092600716E-005     0.523882782408E-005     0.266536854208E-007     0.412445017318E-008
     0.318360000000E+000     0.141427775859E-004     0.806138322396E-005     0.410140549991E-007     0.873278939288E-008
     0.437461600000E+000     0.193451042548E-004     0.110267094252E-004     0.561008023390E-007     0.154144847127E-007
     0.563709296000E+000     0.248076635458E-004     0.141403682211E-004     0.719422242829E-007     0.244970247736E-007
     0.697531853760E+000     0.305402353084E-004     0.174079341258E-004     0.885666823943E-007     0.363492447439E-007
     0.839383764986E+000     0.365525688635E-004     0.208349642522E-004     0.106002449704E-006     0.513858948290E-007
     0.989746790885E+000     0.428543228771E-004     0.244269640399E-004     0.124277536344E-006     0.700726412449E-007
     0.114913159834E+001     0.494549974156E-004     0.281893485269E-004     0.143419492505E-006     0.929315294429E-007
     0.131807949424E+001     0.563638576626E-004     0.321273988677E-004     0.163455187222E-006     0.120546939398E-006
     0.149716426389E+001     0.635898487976E-004     0.362462138146E-004     0.184410561513E-006     0.153572062328E-006
     0.168699411973E+001     0.711415015851E-004     0.405506559035E-004     0.206310354597E-006     0.192735927198E-006
     0.188821376691E+001     0.790268282800E-004     0.450452921196E-004     0.229177802012E-006     0.238851003662E-006
     0.210150659292E+001     0.872532085384E-004     0.497343288669E-004     0.253034304761E-006     0.292821405603E-006
     0.232759698850E+001     0.958272651323E-004     0.546215411254E-004     0.277899068884E-006     0.355651716017E-006
     0.256725280781E+001     0.104754729401E-003     0.597101957588E-004     0.303788715264E-006     0.428456449470E-006
     0.282128797628E+001     0.114040296546E-003     0.650029690311E-004     0.330716859983E-006     0.512470162712E-006
     0.309056525485E+001     0.123687471066E-003     0.705018585077E-004     0.358693666092E-006     0.609058216959E-006
     0.337599917015E+001     0.133698402906E-003     0.762080896563E-004     0.387725368427E-006     0.719728186927E-006
     0.367855912035E+001     0.144073715131E-003     0.821220176249E-004     0.417813773881E-006     0.846141901549E-006
     0.399927266758E+001     0.154812324325E-003     0.882430248655E-004     0.448955740544E-006     0.990128089644E-006
     0.433922902763E+001     0.165911255238E-003     0.945694154854E-004     0.481142640189E-006     0.115369559027E-005
     0.469958276929E+001     0.177365451671E-003     0.101098307453E-003     0.514359809846E-006     0.133904707231E-005
     0.508155773545E+001     0.189167586049E-003     0.107825524048E-003     0.548585999541E-006     0.154859319092E-005
     0.548645119957E+001     0.201307870614E-003     0.114745486250E-003     0.583792824780E-006     0.178496709007E-005
     0.591563827155E+001     0.213773873778E-003     0.121851108053E-003     0.619944233955E-006     0.205103914063E-005
     0.637057656784E+001     0.226550345689E-003     0.129133697043E-003     0.656996002498E-006     0.234993178268E-005
     0.685281116191E+001     0.239619057700E-003     0.136582862889E-003     0.694895267331E-006     0.268503431984E-005
     0.736397983162E+001     0.252958660981E-003     0.144186436759E-003     0.733580116846E-006     0.306001749230E-005
     0.790581862152E+001     0.266544570099E-003     0.151930404957E-003     0.772979253288E-006     0.347884763552E-005
     0.848016773881E+001     0.280348877877E-003     0.159798860390E-003     0.813011745842E-006     0.394580021409E-005
     0.908897780314E+001     0.294340308273E-003     0.167773975715E-003     0.853586893991E-006     0.446547250593E-005
     0.973431647133E+001     0.308484214314E-003     0.175836002159E-003     0.894604221510E-006     0.504279520279E-005
     0.104183754596E+002     0.322742628232E-003     0.183963298092E-003     0.935953621872E-006     0.568304269045E-005
     0.111434779872E+002     0.337074370886E-003     0.192132391405E-003     0.977515675570E-006     0.639184177755E-005
     0.119120866664E+002     0.351435227180E-003     0.200318079493E-003     0.101916215882E-005     0.717517865837E-005
     0.127268118664E+002     0.365778193526E-003     0.208493570310E-003     0.106075676123E-005     0.803940392279E-005
     0.135904205784E+002     0.380053802384E-003     0.216630667359E-003     0.110215602691E-005     0.899123546960E-005
     0.145058458131E+002     0.394210527452E-003     0.224700000648E-003     0.114321052961E-005     0.100377592370E-004
     0.154761965619E+002     0.408195271248E-003     0.232671304612E-003     0.118376628662E-005     0.111864277396E-004
     0.164761965619E+002     0.421598497403E-003     0.240311143520E-003     0.122263564247E-005     0.124090633821E-004
     0.174761965619E+002     0.434063515751E-003     0.247416203978E-003     0.125878419568E-005     0.136678475777E-004
     0.184761965619E+002     0.445655999575E-003     0.254023919758E-003     0.129240239877E-005     0.149602499765E-004
     0.194761965619E+002     0.456437025120E-003     0.260169104319E-003     0.132366737285E-005     0.162839173494E-004
     0.204761965619E+002     0.466463393375E-003     0.265884134223E-003     0.135274384079E-005     0.176366611901E-004
     0.214761965619E+002     0.475787929333E-003     0.271199119720E-003     0.137978499507E-005     0.190164461852E-004
     0.224761965619E+002     0.484459760313E-003     0.276142063379E-003     0.140493330491E-005     0.204213794901E-004
     0.234761965619E+002     0.492524574786E-003     0.280739007628E-003     0.142832126688E-005     0.218497007570E-004
     0.244761965619E+002     0.500024863090E-003     0.285014171961E-003     0.145007210296E-005     0.232997728600E-004
     0.254761965619E+002     0.507000141298E-003     0.288990080540E-003     0.147030040976E-005     0.247700732697E-004
     0.264761965619E+002     0.513487159411E-003     0.292687680864E-003     0.148911276229E-005     0.262591860320E-004
     0.274761965619E+002     0.519520094979E-003     0.296126454138E-003     0.150660827544E-005     0.277657943075E-004
     0.284761965619E+002     0.525130733170E-003     0.299324517907E-003     0.152287912619E-005     0.292886734336E-004
     0.294761965619E+002     0.530348634232E-003     0.302298721513E-003     0.153801103927E-005     0.308266844729E-004
     0.304761965619E+002     0.535201289237E-003     0.305064734865E-003     0.155208373879E-005     0.323787682117E-004
     0.314761965619E+002     0.539714264916E-003     0.307637131002E-003     0.156517136826E-005     0.339439395800E-004
     0.324761965619E+002     0.543911338366E-003     0.310029462869E-003     0.157734288126E-005     0.355212824612E-004
     0.334761965619E+002     0.547814622319E-003     0.312254334722E-003     0.158866240472E-005     0.371099448659E-004
     0.344761965619E+002     0.551444681643E-003     0.314323468537E-003     0.159918957677E-005     0.387091344427E-004
     0.354761965619E+002     0.554820641696E-003     0.316247765767E-003     0.160897986092E-005     0.403181143036E-004
     0.364761965619E+002     0.557960289085E-003     0.318037364779E-003     0.161808483835E-005     0.419361991420E-004
     0.374761965619E+002     0.560880165379E-003     0.319701694266E-003     0.162655247960E-005     0.435627516216E-004
     0.384761965619E+002     0.563595654258E-003     0.321249522927E-003     0.163442739735E-005     0.451971790189E-004
     0.394761965619E+002     0.566121062567E-003     0.322689005663E-003     0.164175108145E-005     0.468389301004E-004
     0.404761965619E+002     0.568469695691E-003     0.324027726544E-003     0.164856211750E-005     0.484874922179E-004
     0.414761965619E+002     0.570653927654E-003     0.325272738763E-003     0.165489639020E-005     0.501423886081E-004
     0.424761965619E+002     0.572685266317E-003     0.326430601800E-003     0.166078727232E-005     0.518031758804E-004
     0.434761965619E+002     0.574574414005E-003     0.327507415983E-003     0.166626580061E-005     0.534694416810E-004
     0.444761965619E+002     0.576331323895E-003     0.328508854620E-003     0.167136083929E-005     0.551408025203E-004
     0.454761965619E+002     0.577965252455E-003     0.329440193899E-003     0.167609923212E-005     0.568169017524E-004
     0.464761965619E+002     0.579484808213E-003     0.330306340681E-003     0.168050594382E-005     0.584974076962E-004
     0.474761965619E+002     0.580897997111E-003     0.331111858353E-003     0.168460419162E-005     0.601820118879E-004
     0.484761965619E+002     0.582212264687E-003     0.331860990872E-003     0.168841556759E-005     0.618704274554E-004
     0.494761965619E+002     0.583434535300E-003     0.332557685121E-003     0.169196015237E-005     0.635623876078E-004
     0.504761965619E+002     0.584571248613E-003     0.333205611710E-003     0.169525662098E-005     0.652576442288E-004
     0.514761965619E+002     0.585628393523E-003     0.333808184308E-003     0.169832234122E-005     0.669559665700E-004
     0.524761965619E+002     0.586611539711E-003     0.334368577635E-003     0.170117346516E-005     0.686571400352E-004
     0.534761965619E+002     0.587525866988E-003     0.334889744183E-003     0.170382501426E-005     0.703609650494E-004
     0.544761965619E+002     0.588376192585E-003     0.335374429773E-003     0.170629095850E-005     0.720672560079E-004
     0.554761965619E+002     0.589166996533E-003     0.335825188024E-003     0.170858428995E-005     0.737758402979E-004
     0.564761965619E+002     0.589902445269E-003     0.336244393803E-003     0.171071709128E-005     0.754865573892E-004
     0.574761965619E+002     0.590586413582E-003     0.336634255742E-003     0.171270059939E-005     0.771992579885E-004
     0.584761965619E+002     0.591222505032E-003     0.336996827868E-003     0.171454526459E-005     0.789138032531E-004
     0.594761965619E+002     0.591814070937E-003     0.337334020434E-003     0.171626080572E-005     0.806300640589E-004
     0.604761965619E+002     0.592364228024E-003     0.337647609973E-003     0.171785626127E-005     0.823479203201E-004
     0.614761965619E+002     0.592875874854E-003     0.337939248667E-003     0.171934003708E-005     0.840672603572E-004
     0.624761965619E+002     0.593351707094E-003     0.338210473044E-003     0.172071995057E-005     0.857879803078E-004
     0.634761965619E+002     0.593794231718E-003     0.338462712079E-003     0.172200327198E-005     0.875099835798E-004
     0.644761965619E+002     0.594205780212E-003     0.338697294721E-003     0.172319676262E-005     0.892331803424E-004
     0.654761965619E+002     0.594588520866E-003     0.338915456894E-003     0.172430671051E-005     0.909574870529E-004
     0.664761965619E+002     0.594944470188E-003     0.339118348007E-003     0.172533896355E-005     0.926828260164E-004
     0.674761965619E+002     0.595275503537E-003     0.339307037016E-003     0.172629896026E-005     0.944091249767E-004
     0.684761965619E+002     0.595583364996E-003     0.339482518048E-003     0.172719175849E-005     0.961363167352E-004
     0.694761965619E+002     0.595869676567E-003     0.339645715643E-003     0.172802206205E-005     0.978643387972E-004
     0.704761965619E+002     0.596135946713E-003     0.339797489627E-003     0.172879424547E-005     0.995931330427E-004
     0.714761965619E+002     0.596383578307E-003     0.339938639635E-003     0.172951237709E-005     0.101322645420E-003
     0.724761965619E+002     0.596613876023E-003     0.340069909333E-003     0.173018024047E-005     0.103052825660E-003
     0.734761965619E+002     0.596828053208E-003     0.340191990328E-003     0.173080135430E-005     0.104783627015E-003
     0.744761965619E+002     0.597027238278E-003     0.340305525818E-003     0.173137899100E-005     0.106515006006E-003
     0.754761965619E+002     0.597212480661E-003     0.340411113976E-003     0.173191619392E-005     0.108246922199E-003
     0.764761965619E+002     0.597384756326E-003     0.340509311106E-003     0.173241579334E-005     0.109979337993E-003
     0.774761965619E+002     0.597544972926E-003     0.340600634568E-003     0.173288042149E-005     0.111712218414E-003
     0.784761965619E+002     0.597693974580E-003     0.340685565510E-003     0.173331252628E-005     0.113445530941E-003
     0.794761965619E+002     0.597832546318E-003     0.340764551401E-003     0.173371438432E-005     0.115179245325E-003
     0.804761965619E+002     0.597961418221E-003     0.340838008386E-003     0.173408811284E-005     0.116913333438E-003
     0.814761965619E+002     0.598081269264E-003     0.340906323481E-003     0.173443568087E-005     0.118647769119E-003
     0.824761965619E+002     0.598192730895E-003     0.340969856610E-003     0.173475891960E-005     0.120382528038E-003
     0.834761965619E+002     0.598296390362E-003     0.341028942507E-003     0.173505953205E-005     0.122117587570E-003
     0.844761965619E+002     0.598392793806E-003     0.341083892469E-003     0.173533910204E-005     0.123852926672E-003
     0.854761965619E+002     0.598482449138E-003     0.341134996009E-003     0.173559910250E-005     0.125588525775E-003
     0.864761965619E+002     0.598565828718E-003     0.341182522369E-003     0.173584090328E-005     0.127324366678E-003
     0.874761965619E+002     0.598643371839E-003     0.341226721948E-003     0.173606577833E-005     0.129060432456E-003
     0.884761965619E+002     0.598715487046E-003     0.341267827616E-003     0.173627491243E-005     0.130796707369E-003
     0.894761965619E+002     0.598782554285E-003     0.341306055942E-003     0.173646940743E-005     0.132533176776E-003
     0.904761965619E+002     0.598844926908E-003     0.341341608337E-003     0.173665028803E-005     0.134269827064E-003
     0.914761965619E+002     0.598902933531E-003     0.341374672113E-003     0.173681850724E-005     0.136006645572E-003
     0.924761965619E+002     0.598956879768E-003     0.341405421468E-003     0.173697495133E-005     0.137743620523E-003
     0.934761965619E+002     0.599007049842E-003     0.341434018410E-003     0.173712044454E-005     0.139480740967E-003
     0.944761965619E+002     0.599053708077E-003     0.341460613604E-003     0.173725575342E-005     0.141217996721E-003
     0.954761965619E+002     0.599097100299E-003     0.341485347171E-003     0.173738159087E-005     0.142955378312E-003
     0.964761965619E+002     0.599137455124E-003     0.341508349421E-003     0.173749861986E-005     0.144692876932E-003
     0.974761965619E+002     0.599174985165E-003     0.341529741544E-003     0.173760745698E-005     0.146430484389E-003
     0.984761965619E+002     0.599209888154E-003     0.341549636248E-003     0.173770867565E-005     0.148168193064E-003
     0.994761965619E+002     0.599242347981E-003     0.341568138349E-003     0.173780280914E-005     0.149905995873E-003
     0.100476196562E+003     0.599272535663E-003     0.341585345328E-003     0.173789035342E-005     0.151643886227E-003
     0.101476196562E+003     0.599300610248E-003     0.341601347841E-003     0.173797176972E-005     0.153381857996E-003
     0.102476196562E+003     0.599326719650E-003     0.341616230201E-003     0.173804748699E-005     0.155119905483E-003
     0.103476196562E+003     0.599351001429E-003     0.341630070815E-003     0.173811790414E-005     0.156858023388E-003
     0.104476196562E+003     0.599373583516E-003     0.341642942604E-003     0.173818339220E-005     0.158596206780E-003
     0.105476196562E+003     0.599394584887E-003     0.341654913386E-003     0.173824429617E-005     0.160334451076E-003
     0.106476196562E+003     0.599414116191E-003     0.341666046229E-003     0.173830093695E-005     0.162072752013E-003
     0.107476196562E+003     0.599432280330E-003     0.341676399788E-003     0.173835361296E-005     0.163811105626E-003
     0.108476196562E+003     0.599449173003E-003     0.341686028612E-003     0.173840260171E-005     0.165549508228E-003
     0.109476196562E+003     0.599464883212E-003     0.341694983431E-003     0.173844816131E-005     0.167287956389E-003
     0.110476196562E+003     0.599479493727E-003     0.341703311425E-003     0.173849053181E-005     0.169026446921E-003
     0.111476196562E+003     0.599493081526E-003     0.341711056470E-003     0.173852993643E-005     0.170764976857E-003
     0.112476196562E+003     0.599505718198E-003     0.341718259373E-003     0.173856658277E-005     0.172503543440E-003
     0.113476196562E+003     0.599517470319E-003     0.341724958082E-003     0.173860066392E-005     0.174242144104E-003
     0.114476196562E+003     0.599528399808E-003     0.341731187890E-003     0.173863235944E-005     0.175980776463E-003
     0.115476196562E+003     0.599538564247E-003     0.341736981621E-003     0.173866183632E-005     0.177719438300E-003
     0.116476196562E+003     0.599548017189E-003     0.341742369798E-003     0.173868924985E-005     0.179458127549E-003
     0.117476196562E+003     0.599556808438E-003     0.341747380809E-003     0.173871474447E-005     0.181196842294E-003
     0.118476196562E+003     0.599564984311E-003     0.341752041057E-003     0.173873845450E-005     0.182935580748E-003
     0.119476196562E+003     0.599572587884E-003     0.341756375094E-003     0.173876050486E-005     0.184674341253E-003
     0.120476196562E+003     0.599579659217E-003     0.341760405754E-003     0.173878101173E-005     0.186413122265E-003
     0.121476196562E+003     0.599586235566E-003     0.341764154273E-003     0.173880008314E-005     0.188151922348E-003
     0.122476196562E+003     0.599592351580E-003     0.341767640401E-003     0.173881781958E-005     0.189890740168E-003
     0.123476196562E+003     0.599598039481E-003     0.341770882504E-003     0.173883431450E-005     0.191629574482E-003
     0.124476196562E+003     0.599603329237E-003     0.341773897665E-003     0.173884965479E-005     0.193368424137E-003
     0.125476196562E+003     0.599608248717E-003     0.341776701769E-003     0.173886392128E-005     0.195107288058E-003
     0.126476196562E+003     0.599612823840E-003     0.341779309589E-003     0.173887718913E-005     0.196846165247E-003
     0.127476196562E+003     0.599617078710E-003     0.341781734865E-003     0.173888952826E-005     0.198585054776E-003
     0.128476196562E+003     0.599621035745E-003     0.341783990375E-003     0.173890100366E-005     0.200323955779E-003
     0.129476196562E+003     0.599624715793E-003     0.341786088002E-003     0.173891167580E-005     0.202062867455E-003
     0.130476196562E+003     0.599628138243E-003     0.341788038798E-003     0.173892160090E-005     0.203801789056E-003
     0.131476196562E+003     0.599631321126E-003     0.341789853042E-003     0.173893083126E-005     0.205540719887E-003
     0.132476196562E+003     0.599634281211E-003     0.341791540290E-003     0.173893941551E-005     0.207279659303E-003
     0.133476196562E+003     0.599637034094E-003     0.341793109434E-003     0.173894739887E-005     0.209018606702E-003
