 #              _____________________  _______________________             #
 #              ___  __ \__  __ \_  / / /_  /___  ____/_  ___/             #
 #              __  / / /_  /_/ /  / / /_  __/_  __/  _____ \              #
 #              _  /_/ /_  _, _// /_/ / / /_ _  /___  ____/ /              #
 #              /_____/ /_/ |_| \____/  \__/ /_____/  /____/               #
 #                                                                         #
  
 #        time                      [L]                   runoff elevation [m a.m.s.l]       runoff flux [L3.T-1.L-2]   in    x              directions   cumulative flux
 #-----------------------------------------------------------------------------------------------

   0.0000000000000000        0.0000000000000000       -0.0000000000000000        0.0000000000000000     
   1.0000000000000000E-004   0.0000000000000000       -0.0000000000000000        0.0000000000000000     
   2.0600000000000002E-004   0.0000000000000000       -0.0000000000000000        0.0000000000000000     
   3.1836000000000006E-004   0.0000000000000000       -0.0000000000000000        0.0000000000000000     
   4.3746160000000009E-004   0.0000000000000000       -0.0000000000000000        0.0000000000000000     
   5.6370929600000014E-004   3.1859614935337248E-008  -6.4158735344168786E-018   6.4158735344168786E-018
   6.9753185376000013E-004   4.4654270513909958E-007  -5.2274905412389476E-016   5.2916492765831167E-016
   8.3938376498560023E-004   1.1879105062596775E-006  -2.6698967272693127E-015   3.1990616549276244E-015
   9.8974679088473629E-004   2.2254167130133915E-006  -7.6010542618461664E-015   1.0800115916773791E-014
   1.1491315983378205E-003   3.5427167769573766E-006  -1.6497405423675365E-014   2.7297521340449155E-014
   1.3180794942380899E-003   5.1322146750076129E-006  -3.0598228318782485E-014   5.7895749659231633E-014
   1.4971642638923754E-003   6.9921729593261852E-006  -5.1232065037019753E-014   1.0912781469625139E-013
   1.6869941197259180E-003   9.1250659926175865E-006  -7.9845102109310039E-014   1.8897291680556144E-013
   1.8882137669094731E-003   1.1536591326279266E-005  -1.1802774363197352E-013   3.0700066043753499E-013
   2.1015065929240414E-003   1.4235054418246929E-005  -1.6754062975815783E-013   4.7454129019569281E-013
   2.3275969884994840E-003   1.7230977474222575E-005  -2.3034110636605614E-013   7.0488239656174896E-013
   2.5672528078094533E-003   2.0536849474217308E-005  -3.0861092095729250E-013   1.0134933175190414E-012
   2.8212879762780207E-003   2.4166968997574964E-005  -4.0478576582690479E-013   1.4182790833459462E-012
   3.0905652548547020E-003   2.8137350460066761E-005  -5.2158719853656371E-013   1.9398662818825100E-012
   3.3759991701459843E-003   3.2465675308708735E-005  -6.6205742247722448E-013   2.6019237043597346E-012
   3.6785591203547436E-003   3.7171276259277268E-005  -8.2959739267819640E-013   3.4315210970379310E-012
   3.9992726675760282E-003   4.2275146708318309E-005  -1.0280087148622932E-012   4.4595298119002242E-012
   4.3392290276305897E-003   4.7799970032346272E-005  -1.2615398234120255E-012   5.7210696353122492E-012
   4.6995827692884254E-003   5.3770165178183558E-005  -1.5349369529993450E-012   7.2560065883115942E-012
   5.0815577354457308E-003   6.0211946084592175E-005  -1.8535004571618097E-012   9.1095070454734039E-012
   5.4864511995724747E-003   6.7153393256663398E-005  -2.2231470740064270E-012   1.1332654119479831E-011
   5.9156382715468232E-003   7.4624536363864302E-005  -2.6504787940033678E-012   1.3983132913483198E-011
   6.3705765678396331E-003   8.2657447127620998E-005  -3.1428590474072872E-012   1.7125991960890484E-011
   6.8528111619100118E-003   9.1286342054669101E-005  -3.7084969994070037E-012   2.0834488960297486E-011
   7.3639798316246126E-003   1.0054769479082894E-004  -4.3565408200584909E-012   2.5191029780355978E-011
   7.9058186215220892E-003   1.1048035803823682E-004  -5.0971808839736907E-012   3.0288210664329669E-011
   8.4801677388134152E-003   1.2112569511226312E-004  -5.9417639523358560E-012   3.6229974616665523E-011
   9.0889778031422210E-003   1.3252772132265581E-004  -6.9029194979404151E-012   4.3132894114605939E-011
   9.7343164713307555E-003   1.4473325545409356E-004  -7.9946994535972485E-012   5.1127593568203186E-011
   1.0418375459610602E-002   1.5779208169945511E-004  -9.2327327964821616E-012   6.0360326364685352E-011
   1.1143477987187239E-002   1.7175712246844072E-004  -1.0634396527134117E-011   7.0994722891819469E-011
   1.1912086666418473E-002   1.8668462255744866E-004  -1.2219004763143144E-011   8.3213727654962619E-011
   1.2726811866403582E-002   2.0263434522585396E-004  -1.4008017845697950E-011   9.7221745500660572E-011
   1.3590420578387798E-002   2.1966978078060342E-004  -1.6025273553762853E-011   1.1324701905442343E-010
   1.4505845813091067E-002   2.3785836832652694E-004  -1.8297242737612809E-011   1.3154426179203623E-010
   1.5476196561876531E-002   2.5727173139490460E-004  -2.0853311922850868E-011   1.5239757371488710E-010
   1.6504768355589124E-002   2.7798592821837956E-004  -2.3726095700160150E-011   1.7612366941504726E-010
   1.7595054456924473E-002   3.0008171747689089E-004  -2.6951782007434669E-011   2.0307545142248193E-010
   1.8750757724339942E-002   3.2364484039743989E-004  -3.0570513732384638E-011   2.3364596515486654E-010
   1.9975803187800338E-002   3.4876632015065509E-004  -3.4626810418304442E-011   2.6827277557317097E-010
   2.1274351379068360E-002   3.7554277954968547E-004  -3.9170034246824128E-011   3.0744280981999509E-010
   2.2650812461812463E-002   4.0407677812230174E-004  -4.4254904902886641E-011   3.5169771472288172E-010
   2.4109861209521213E-002   4.3447716969556609E-004  -4.9942068403036647E-011   4.0163978312591835E-010
   2.5656452882092486E-002   4.6685948170436159E-004  -5.6298725492927295E-011   4.5793850861884563E-010
   2.7295840055018037E-002   5.0134631751079636E-004  -6.3399325798777130E-011   5.2133783441762272E-010
   2.9033590458319120E-002   5.3806778310131419E-004  -7.1326334555875289E-011   5.9266416897349798E-010
   3.0875605885818270E-002   5.7716193961257370E-004  -8.0171079441246795E-011   6.7283524841474481E-010
   3.2828142238967364E-002   6.1877528322615543E-004  -9.0034685813987038E-011   7.6286993422873183E-010
   3.4897830773305411E-002   6.6306325406621509E-004  -1.0102910952296998E-010   8.6389904375170181E-010
   3.7091700619703738E-002   7.1019077583369392E-004  -1.1327827738581481E-010   9.7717732113751663E-010
   3.9417202656885961E-002   7.6033282801599308E-004  -1.2691934648417971E-010   1.1040966676216963E-009
   4.1882234816299123E-002   8.1367505262244690E-004  -1.4210409456857506E-010   1.2462007621902715E-009
   4.4495168905277070E-002   8.7041439751395124E-004  -1.5900045513192115E-010   1.4052012173221925E-009
   4.7264879039593699E-002   9.3075979852006178E-004  -1.7779421210708674E-010   1.5829954294292792E-009
   5.0200771781969321E-002   9.9493290266926032E-004  -1.9869087068296355E-010   1.7816863001122428E-009
   5.3312818088887486E-002   1.0631688349983267E-003  -2.2191772243092709E-010   2.0036040225431698E-009
   5.6611587174220740E-002   1.1357170115553351E-003  -2.4772612480499464E-010   2.2513301473481644E-009
   6.0108282404673988E-002   1.2128420013682438E-003  -2.7639401714245420E-010   2.5277241644906187E-009
   6.3814779348954437E-002   1.2948244403178731E-003  -3.0822869756685095E-010   2.8359528620574697E-009
   6.7743666109891701E-002   1.3819620000308807E-003  -3.4356988770367622E-010   3.1795227497611461E-009
   7.1908286076485209E-002   1.4745704150957259E-003  -3.8279311488477503E-010   3.5623158646459210E-009
   7.6322783241074332E-002   1.5729845721031885E-003  -4.2631344456670857E-010   3.9886293092126292E-009
   8.1002150235538792E-002   1.6775596642234960E-003  -4.7458959905010579E-010   4.4632189082627347E-009
   8.5962279249671120E-002   1.7886724152551940E-003  -5.2812850229340132E-010   4.9913474105561362E-009
   9.1220016004651391E-002   1.9067223773173428E-003  -5.8749029470054115E-010   5.5788377052566776E-009
   9.6793216964930484E-002   2.0321333066072420E-003  -6.5329386626711370E-010   6.2321315715237910E-009
  0.10270080998282632        2.1653546219115266E-003  -7.2622296143577012E-010   6.9583545329595614E-009
  0.10896285858179591        2.3068629508400437E-003  -8.0703291448694103E-010   7.7653874474465024E-009
  0.11560063009670367        2.4571637690503942E-003  -8.9655808032681160E-010   8.6619455277733146E-009
  0.12263666790250589        2.6167931380473410E-003  -9.9572003218857936E-010   9.6576655599618946E-009
  0.13009486797665626        2.7863195474766454E-003  -1.1055366050984992E-009   1.0763202165060394E-008
  0.13800056005525563        2.9663458681883281E-003  -1.2271318720447253E-009   1.1990334037105119E-008
  0.14638059365857098        3.1575114227211055E-003  -1.3617471487013344E-009   1.3352081185806453E-008
  0.15526342927808526        3.3604941802591426E-003  -1.5107531323868105E-009   1.4862834318193264E-008
  0.16467923503477039        3.5760130835355763E-003  -1.6756632917689594E-009   1.6538497609962225E-008
  0.17465998913685662        3.8048305156060131E-003  -1.8581486357695853E-009   1.8396646245731811E-008
  0.18523958848506802        4.0477549148908295E-003  -2.0600540032855657E-009   2.0456700249017376E-008
  0.19645396379417213        4.3056435473893479E-003  -2.2834160298532320E-009   2.2740116278870607E-008
  0.20834120162182246        4.5794054455033407E-003  -2.5304829633777119E-009   2.5270599242248319E-008
  0.22094167371913181        4.8700045234739064E-003  -2.8037365186800736E-009   2.8074335760928393E-008
  0.23429817414227974        5.1784628800362270E-003  -3.1059159800497523E-009   3.1180251740978145E-008
  0.24845606459081654        5.5058642995332628E-003  -3.4400447824122893E-009   3.4620296523390436E-008
  0.26346342846626553        5.8533579634042062E-003  -3.8094598253359959E-009   3.8429756348726431E-008
  0.27937123417424148        6.2221623846787479E-003  -4.2178438001296291E-009   4.2647600148856059E-008
  0.29623350822469596        6.6135695788663486E-003  -4.6692608389733333E-009   4.7316860987829392E-008
  0.31410751871817771        7.0289494854333077E-003  -5.1681958266487351E-009   5.2485056814478124E-008
  0.33305396984126839        7.4697546549124545E-003  -5.7195977502914415E-009   5.8204654564769567E-008
  0.35313720803174453        7.9375252175930486E-003  -6.3289275010096691E-009   6.4533582065779235E-008
  0.37442544051364923        8.4338941506958490E-003  -7.0022105835614725E-009   7.1535792649340711E-008
  0.39699096694446823        8.9605928619527868E-003  -7.7460952369603696E-009   7.9281887886301086E-008
  0.42091042496113634        9.5194571085862930E-003  -8.5679165203279677E-009   8.7849804406629058E-008
  0.44626505045880455        1.0112433271823278E-002  -9.4757669750191936E-009   9.7325571381648257E-008
  0.47314095348633284        1.0741585008287242E-002  -1.0478574536548634E-008   1.0780414591819690E-007
  0.50162941069551281        1.1409100300892960E-002  -1.1586188438736742E-008   1.1939033435693363E-007
  0.53182717533724366        1.2117298933226021E-002  -1.2809473928425051E-008   1.3219980828535867E-007
  0.56383680585747831        1.2868640412828784E-002  -1.4160416692798476E-008   1.4636022497815715E-007
  0.59776701420892708        1.3665732370340007E-002  -1.5652237993593410E-008   1.6201246297175057E-007
  0.63373303506146272        1.4511339463052718E-002  -1.7299521604135197E-008   1.7931198457588577E-007
  0.67185701716515056        1.5408392813168869E-002  -1.9118353757199802E-008   1.9843033833308556E-007
  0.71226843819505958        1.6360000012847004E-002  -2.1126477435194924E-008   2.1955681576828048E-007
  0.75510454448676323        1.7369455730064678E-002  -2.3343462470269858E-008   2.4290027823855035E-007
  0.80051081715596906        1.8440252951359745E-002  -2.5790893071985169E-008   2.6869117131053553E-007
  0.84864146618532721        1.9576094899678459E-002  -2.8492574565516335E-008   2.9718374587605187E-007
  0.89965995415644684        2.0780907667852812E-002  -3.1474761305599782E-008   3.2865850718165163E-007
  0.95373955140583366        2.2058853610661046E-002  -3.4766407932275063E-008   3.6342491511392672E-007
   1.0110639244901838        2.3414345541003304E-002  -3.8399446355837286E-008   4.0182436146976402E-007
   1.0718277599595949        2.4852061778456606E-002  -4.2409091102380335E-008   4.4423345257214437E-007
   1.1362374255571706        2.6376962101369715E-002  -4.6834175920193758E-008   4.9106762849233815E-007
   1.2045116710906008        2.7994304656728846E-002  -5.1717524843617963E-008   5.4278515333595608E-007
   1.2768823713560369        2.9709663885279146E-002  -5.7106361237563831E-008   5.9989151457351997E-007
   1.3535953136373993        3.1528949522837017E-002  -6.3052758705857911E-008   6.6294427327937785E-007
   1.4349110324556433        3.3458426742384799E-002  -6.9614138143282361E-008   7.3255841142266023E-007
   1.5211056944029819        3.5504737505415260E-002  -7.6853815648393449E-008   8.0941222707105370E-007
   1.6124720360671609        3.7674923195102447E-002  -8.4841606496060822E-008   8.9425383356711448E-007
   1.7093203582311907        3.9976448608230165E-002  -9.3654490899721695E-008   9.8790832446683609E-007
   1.8119795797250622        4.2417227387426266E-002  -1.0337734787861891E-007   1.0912856723454549E-006
   1.9207983545085661        4.5005648980144405E-002  -1.1410376419031727E-007   1.2053894365357722E-006
   2.0361462557790801        4.7750607216021874E-002  -1.2593692599966883E-007   1.3313263625354411E-006
   2.1584150311258252        5.0661530599740982E-002  -1.3899060173884753E-007   1.4703169642742886E-006
   2.2880199329933748        5.3748414422349247E-002  -1.5339022547649870E-007   1.6237071897507873E-006
   2.4254011289729775        5.7021854800172564E-002  -1.6927409106561922E-007   1.7929812808164064E-006
   2.5710251967113562        6.0493084757003331E-002  -1.8679466838848156E-007   1.9797759492048879E-006
   2.7253867085140375        6.4174012472188138E-002  -2.0612005417267048E-007   2.1858960033775583E-006
   2.8890099110248801        6.8077261824597390E-002  -2.2743557112601847E-007   2.4133315745035766E-006
   3.0624505056863729        7.2216215370258935E-002  -2.5094553054196100E-007   2.6642771050455377E-006
   3.2462975360275554        7.6605059899706424E-002  -2.7687517507384480E-007   2.9411522801193825E-006
   3.4411753881892091        8.1258834729855650E-002  -3.0547282008162524E-007   3.2466251002010077E-006
   3.6477459114805617        8.6193482894513382E-002  -3.3701221383331478E-007   3.5836373140343225E-006
   3.8667106661693955        9.1425905407469032E-002  -3.7179513891422376E-007   3.9554324529485463E-006
   4.0988133061395597        9.6974018782558513E-002  -4.1015427947905522E-007   4.3655867324276016E-006
   4.3448421045079337       0.10285681600615360       -4.5245638149683810E-007   4.8180431139244393E-006
   4.6056326307784099       0.10909443116925813       -4.9910573591025248E-007   5.3171488498346916E-006
   4.8820705886251146       0.11570820797882497       -5.5054801768533814E-007   5.8676968675200294E-006
   5.1750948239426213       0.12272077238108481       -6.0727451709371465E-007   6.4749713846137442E-006
   5.4857005133791787       0.13015610954364679       -6.6982680327908969E-007   7.1447981878928338E-006
   5.8149425441819300       0.13803964545793879       -7.3880186424806663E-007   7.8836000521409005E-006
   6.1639390968328458       0.14639833343924763       -8.1485777193064086E-007   8.6984578240715414E-006
   6.5338754426428167       0.15526074581825974       -8.9871992592096212E-007   9.5971777499925031E-006
   6.9260079692013861       0.16465717113563622       -9.9118793498074366E-007   1.0588365684973247E-005
   7.3416684473534692       0.17461971716984873       -1.0931432014178632E-006   1.1681508886391109E-005
   7.7822685541946779       0.18518242014832029       -1.2055572800982088E-006   1.2887066166489318E-005
   8.2493046674463599       0.19638136051291674       -1.3295010911723957E-006   1.4216567257661714E-005
   8.7443629474931424       0.20825478563309927       -1.4661550736698299E-006   1.5682722331331545E-005
   9.2691247243427313       0.22084323988364948       -1.6168203760069918E-006   1.7299542707338536E-005
   9.8253722078032961       0.23418970252889368       -1.7829311892586928E-006   1.9082473896597228E-005
   10.414994540271495       0.24833973388187044       -1.9660683398430842E-006   2.1048542236440311E-005
   11.039994212687786       0.26334163023499424       -2.1679742701753611E-006   2.3216516506615672E-005
   11.702493865449053       0.27924658808856162       -2.3905695489638359E-006   2.5607086055579506E-005
   12.404743497375996       0.29610887823503018       -2.6359710672793049E-006   2.8243057122858812E-005
   13.149128107218557       0.31398603029047795       -2.9065120924608997E-006   3.1149569215319711E-005
   13.938175793651672       0.33293902830013566       -3.2047643694793834E-006   3.4354333584799097E-005
   14.774566341270774       0.35303251808250180       -3.5335624787280121E-006   3.7887896063527108E-005
   15.661140321747020       0.37433502701642063       -3.8960306805342262E-006   4.1783926744061337E-005
   16.600908741051843       0.39691919701776790       -4.2956125001841281E-006   4.6079539244245465E-005
   17.597063265514954       0.42086203149698870       -4.7361033331439308E-006   5.0815642577389397E-005
   18.652987061445852       0.44624515712843393       -5.2216863785475152E-006   5.6037328955936911E-005
   19.772266285132606       0.47315510111079734       -5.7569722363229082E-006   6.1794301192259825E-005
   20.958702262240564       0.50168358110708544       -6.3470424618925908E-006   6.8141343654152414E-005
   22.216324397974997       0.53192776226766636       -6.9974964458803493E-006   7.5138840100032764E-005
   23.549403861853499       0.56399007570108273       -7.7144924901165721E-006   8.2853332590149338E-005
   24.962468093564709       0.59797509316383801       -8.5047212267254691E-006   9.1358053816874800E-005
   26.460316179178594       0.63397265819782711       -9.3750257861034983E-006   1.0073307960297830E-004
   28.048035149929312       0.67199594294543419       -1.0330769598659073E-005   1.1106384920163737E-004
   29.731017258925071       0.71182053818584201       -1.1371186477056307E-005   1.2243503567869367E-004
   31.514978294460576       0.75270222473626125       -1.2480354556258457E-005   1.3491539023495212E-004
   33.405976992128210       0.79310230596123654       -1.3616650118277822E-005   1.4853204035322995E-004
   35.410435611655906       0.83072898434537623       -1.4710266124099523E-005   1.6324230647732948E-004
   37.535161748355264       0.86311253757923112       -1.5678360014510368E-005   1.7892066649183986E-004
   39.787371453256583       0.88847860915823518       -1.6453812771351540E-005   1.9537447926319139E-004
   42.174713740451978       0.90634154224477093       -1.7008841520695785E-005   2.1238332078388718E-004
   44.705296564879099       0.91746491480869863       -1.7358173808251373E-005   2.2974149459213856E-004
   47.387714358771845       0.92334977695253739       -1.7544136798268263E-005   2.4728563139040684E-004
   50.231077220298161       0.92564887878408986       -1.7617004139384847E-005   2.6490263552979168E-004
   53.245041853516049       0.92577598273667050       -1.7621036073809040E-005   2.8252367160360071E-004
   56.439844364727016       0.92475676177148125       -1.7588715191867949E-005   3.0011238679546865E-004
   59.826335026610636       0.92324467249261877       -1.7540808523505184E-005   3.1765319531897382E-004
   63.416015128207277       0.92160885826979011       -1.7489040819343793E-005   3.3514223613831764E-004
   67.221076035899713       0.92003155938430670       -1.7439182892088576E-005   3.5258141903040622E-004
