 #              _____________________  _______________________             #
 #              ___  __ \__  __ \_  / / /_  /___  ____/_  ___/             #
 #              __  / / /_  /_/ /  / / /_  __/_  __/  _____ \              #
 #              _  /_/ /_  _, _// /_/ / / /_ _  /___  ____/ /              #
 #              /_____/ /_/ |_| \____/  \__/ /_____/  /____/               #
 #                                                                         #
  
 #        time                      c  [M/L^3]                   concetration [M/L^3]       concentration flux [M.L^{-2}.T^{-1}]   in    x              directions   cumulative flux
 #-----------------------------------------------------------------------------------------------

     0.000000000000E+000     0.000000000000E+000     0.000000000000E+000     0.000000000000E+000     0.000000000000E+000
     0.100000000000E+000     0.970663353440E-008     0.553278111461E-008    -0.281492372493E-010     0.281492372493E-011
     0.206000000000E+000     0.199954885448E-007     0.113974284705E-007    -0.579869167788E-010     0.896153690348E-011
     0.318360000000E+000     0.309014765033E-007     0.176138416069E-007    -0.896142818585E-010     0.190305976131E-010
     0.437461600000E+000     0.424616008749E-007     0.242031124987E-007    -0.123138642536E-009     0.336966069609E-010
     0.563709296000E+000     0.547150823035E-007     0.311875969130E-007    -0.158673738678E-009     0.537288008848E-010
     0.697531853760E+000     0.677034912684E-007     0.385909900230E-007    -0.196340124677E-009     0.800035385599E-010
     0.839383764986E+000     0.814708886543E-007     0.464384065329E-007    -0.236265577096E-009     0.113518262228E-009
     0.989746790885E+000     0.960639747031E-007     0.547564655808E-007    -0.278585526637E-009     0.155407224985E-009
     0.114913159834E+001     0.111532246844E-006     0.635733807013E-007    -0.323443515847E-009     0.206959207480E-009
     0.131807949424E+001     0.127928166931E-006     0.729190551507E-007    -0.370991684098E-009     0.269637471905E-009
     0.149716426389E+001     0.145307338434E-006     0.828251829074E-007    -0.421391281457E-009     0.345102232479E-009
     0.168699411973E+001     0.163728694188E-006     0.933253556870E-007    -0.474813213143E-009     0.435235956278E-009
     0.188821376691E+001     0.183254695305E-006     0.104455176324E-006    -0.531438616384E-009     0.542171847166E-009
     0.210150659292E+001     0.203951541926E-006     0.116252378898E-006    -0.591459471583E-009     0.668325909333E-009
     0.232759698850E+001     0.225889396489E-006     0.128756955999E-006    -0.655079249816E-009     0.816433036057E-009
     0.256725280781E+001     0.249142620273E-006     0.142011293555E-006    -0.722513598791E-009     0.989587624538E-009
     0.282128797628E+001     0.273790023979E-006     0.156060313668E-006    -0.793991069540E-009     0.119128927965E-008
     0.309056525485E+001     0.299915133184E-006     0.170951625915E-006    -0.869753886233E-009     0.142549423917E-008
     0.337599917015E+001     0.327606469529E-006     0.186735687632E-006    -0.950058761635E-009     0.169667323126E-008
     0.367855912035E+001     0.356957848579E-006     0.203465973690E-006    -0.103517776088E-008     0.200987656305E-008
     0.399927266758E+001     0.388068695308E-006     0.221199156325E-006    -0.112539921639E-008     0.237080733778E-008
     0.433922902763E+001     0.421044378253E-006     0.239995295604E-006    -0.122102869693E-008     0.278590380911E-008
     0.469958276929E+001     0.455996563425E-006     0.259918041152E-006    -0.132239003393E-008     0.326243200577E-008
     0.508155773545E+001     0.493043589108E-006     0.281034845792E-006    -0.142982640841E-008     0.380858989973E-008
     0.548645119957E+001     0.532310862785E-006     0.303417191788E-006    -0.154370150208E-008     0.443362454848E-008
     0.591563827155E+001     0.573931281445E-006     0.327140830424E-006    -0.166440071619E-008     0.514796381846E-008
     0.637057656784E+001     0.618045676645E-006     0.352286035687E-006    -0.179233246227E-008     0.596336449523E-008
     0.685281116191E+001     0.664803285736E-006     0.378937872870E-006    -0.192792952863E-008     0.689307880887E-008
     0.736397983162E+001     0.714362250776E-006     0.407186482942E-006    -0.207165052725E-008     0.795204165300E-008
     0.790581862152E+001     0.766890146690E-006     0.437127383614E-006    -0.222398142540E-008     0.915708105729E-008
     0.848016773881E+001     0.822564540385E-006     0.468861788019E-006    -0.238543716711E-008     0.105271547886E-007
     0.908897780314E+001     0.881573582548E-006     0.502496942052E-006    -0.255656338939E-008     0.120836163101E-007
     0.973431647133E+001     0.944116634018E-006     0.538146481390E-006    -0.273793823865E-008     0.138505137266E-007
     0.104183754596E+002     0.101040492866E-005     0.575930809336E-006    -0.293017429311E-008     0.158549257891E-007
     0.111434779872E+002     0.108066227482E-005     0.615977496645E-006    -0.313392059697E-008     0.181273395352E-007
     0.119120866664E+002     0.115512579751E-005     0.658421704579E-006    -0.334986481277E-008     0.207020747045E-007
     0.127268118664E+002     0.123404672364E-005     0.703406632474E-006    -0.357873549855E-008     0.236177606993E-007
     0.135904205784E+002     0.131769121263E-005     0.751083991199E-006    -0.382130451662E-008     0.269178725710E-007
     0.145058458131E+002     0.140634123498E-005     0.801614503939E-006    -0.407838958144E-008     0.306513333108E-007
     0.154761965619E+002     0.150029550140E-005     0.855168435800E-006    -0.435085695407E-008     0.348731906140E-007
     0.165047683556E+002     0.159987044531E-005     0.911926153825E-006    -0.463962429139E-008     0.396453772935E-007
     0.175950544569E+002     0.170540126152E-005     0.972078719066E-006    -0.494566365841E-008     0.450375656422E-007
     0.187507577243E+002     0.181724300433E-005     0.103582851247E-005    -0.527000471256E-008     0.511281273078E-007
     0.199758031878E+002     0.193577174799E-005     0.110338989635E-005    -0.561373806917E-008     0.580052116625E-007
     0.212743513791E+002     0.206138581304E-005     0.117498991343E-005    -0.597801885781E-008     0.657679572376E-007
     0.226508124618E+002     0.219450706193E-005     0.125086902530E-005    -0.636407047959E-008     0.745278525806E-007
     0.241098612095E+002     0.233558226757E-005     0.133128189252E-005    -0.677318857596E-008     0.844102648904E-007
     0.256564528821E+002     0.248508455862E-005     0.141649819842E-005    -0.720674522001E-008     0.955561570340E-007
     0.272958400550E+002     0.264351494539E-005     0.150680351887E-005    -0.766619334164E-008     0.108124016063E-006
     0.290335904583E+002     0.281140393055E-005     0.160250024041E-005    -0.815307139858E-008     0.122292019174E-006
     0.308756058858E+002     0.298931320882E-005     0.170390852903E-005    -0.866900830556E-008     0.138260466214E-006
     0.328281422390E+002     0.317783746013E-005     0.181136735228E-005    -0.921572863439E-008     0.156254511394E-006
     0.348281422390E+002     0.337088199804E-005     0.192140273888E-005    -0.977555779432E-008     0.175805626982E-006
     0.368281422390E+002     0.356386406075E-005     0.203140251463E-005    -0.103352057762E-007     0.196476038535E-006
     0.388281422390E+002     0.375678366847E-005     0.214136669103E-005    -0.108946726386E-007     0.218265383812E-006
     0.408281422390E+002     0.394964084143E-005     0.225129527961E-005    -0.114539584401E-007     0.241173300692E-006
     0.428281422390E+002     0.414243559982E-005     0.236118829190E-005    -0.120130632395E-007     0.265199427171E-006
     0.448281422390E+002     0.433516796384E-005     0.247104573939E-005    -0.125719870951E-007     0.290343401361E-006
     0.468281422390E+002     0.452783795369E-005     0.258086763360E-005    -0.131307300657E-007     0.316604861493E-006
     0.488281422390E+002     0.472044558956E-005     0.269065398605E-005    -0.136892922097E-007     0.343983445912E-006
     0.508281422390E+002     0.491299089162E-005     0.280040480822E-005    -0.142476735857E-007     0.372478793084E-006
     0.528281422390E+002     0.510547388004E-005     0.291012011162E-005    -0.148058742521E-007     0.402090541588E-006
     0.548281422390E+002     0.529789457500E-005     0.301979990775E-005    -0.153638942675E-007     0.432818330123E-006
     0.568281422390E+002     0.549025299665E-005     0.312944420809E-005    -0.159217336903E-007     0.464661797503E-006
     0.588281422390E+002     0.568254916515E-005     0.323905302413E-005    -0.164793925789E-007     0.497620582661E-006
     0.608281422390E+002     0.587478310064E-005     0.334862636736E-005    -0.170368709919E-007     0.531694324645E-006
     0.628281422390E+002     0.606695482327E-005     0.345816424926E-005    -0.175941689875E-007     0.566882662620E-006
     0.648281422390E+002     0.625906435316E-005     0.356766668130E-005    -0.181512866242E-007     0.603185235868E-006
     0.668281422390E+002     0.645111171045E-005     0.367713367496E-005    -0.187082239603E-007     0.640601683789E-006
     0.688281422390E+002     0.664309691526E-005     0.378656524170E-005    -0.192649810543E-007     0.679131645897E-006
     0.708281422390E+002     0.683501998770E-005     0.389596139299E-005    -0.198215579643E-007     0.718774761826E-006
     0.728281422390E+002     0.702688094788E-005     0.400532214029E-005    -0.203779547488E-007     0.759530671324E-006
     0.748281422390E+002     0.721867981590E-005     0.411464749506E-005    -0.209341714661E-007     0.801399014256E-006
     0.768281422390E+002     0.741041661185E-005     0.422393746876E-005    -0.214902081744E-007     0.844379430605E-006
     0.788281422390E+002     0.760209135583E-005     0.433319207282E-005    -0.220460649319E-007     0.888471560469E-006
     0.808281422390E+002     0.779370406792E-005     0.444241131871E-005    -0.226017417970E-007     0.933675044063E-006
     0.828281422390E+002     0.798525476818E-005     0.455159521786E-005    -0.231572388277E-007     0.979989521718E-006
     0.848281422390E+002     0.817674347670E-005     0.466074378172E-005    -0.237125560824E-007     0.102741463388E-005
     0.868281422390E+002     0.836817021353E-005     0.476985702171E-005    -0.242676936192E-007     0.107595002112E-005
     0.888281422390E+002     0.855953499873E-005     0.487893494928E-005    -0.248226514963E-007     0.112559532411E-005
     0.908281422390E+002     0.875083785235E-005     0.498797757584E-005    -0.253774297718E-007     0.117635018366E-005
     0.928281422390E+002     0.894207879443E-005     0.509698491282E-005    -0.259320285038E-007     0.122821424067E-005
     0.948281422390E+002     0.913325784501E-005     0.520595697165E-005    -0.264864477505E-007     0.128118713617E-005
     0.968281422390E+002     0.932437502411E-005     0.531489376374E-005    -0.270406875699E-007     0.133526851131E-005
     0.988281422390E+002     0.951543035177E-005     0.542379530051E-005    -0.275947480201E-007     0.139045800735E-005
     0.100828142239E+003     0.970642384799E-005     0.553266159336E-005    -0.281486291592E-007     0.144675526566E-005
     0.102828142239E+003     0.989735553280E-005     0.564149265369E-005    -0.287023310451E-007     0.150415992776E-005
     0.104828142239E+003     0.100882254262E-004     0.575028849292E-005    -0.292558537359E-007     0.156267163523E-005
     0.106828142239E+003     0.102790335482E-004     0.585904912245E-005    -0.298091972896E-007     0.162229002981E-005
     0.108828142239E+003     0.104697799187E-004     0.596777455365E-005    -0.303623617642E-007     0.168301475333E-005
     0.110828142239E+003     0.106604645578E-004     0.607646479794E-005    -0.309153472176E-007     0.174484544777E-005
     0.112828142239E+003     0.108510874854E-004     0.618511986669E-005    -0.314681537077E-007     0.180778175519E-005
     0.114828142239E+003     0.110416487216E-004     0.629373977129E-005    -0.320207812925E-007     0.187182331777E-005
     0.116828142239E+003     0.112321482862E-004     0.640232452311E-005    -0.325732300299E-007     0.193696977783E-005
     0.118828142239E+003     0.114225861992E-004     0.651087413355E-005    -0.331254999777E-007     0.200322077779E-005
     0.120828142239E+003     0.116129624806E-004     0.661938861396E-005    -0.336775911938E-007     0.207057596017E-005
     0.122828142239E+003     0.118032771504E-004     0.672786797571E-005    -0.342295037361E-007     0.213903496765E-005
     0.124828142239E+003     0.119935302284E-004     0.683631223019E-005    -0.347812376624E-007     0.220859744297E-005
     0.126828142239E+003     0.121837217346E-004     0.694472138873E-005    -0.353327930304E-007     0.227926302903E-005
     0.128828142239E+003     0.123738516890E-004     0.705309546271E-005    -0.358841698981E-007     0.235103136883E-005
     0.130828142239E+003     0.125639201114E-004     0.716143446347E-005    -0.364353683230E-007     0.242390210547E-005
     0.132828142239E+003     0.127539270217E-004     0.726973840238E-005    -0.369863883631E-007     0.249787488220E-005
     0.134828142239E+003     0.129438724399E-004     0.737800729076E-005    -0.375372300760E-007     0.257294934235E-005
     0.136828142239E+003     0.131337563859E-004     0.748624113998E-005    -0.380878935194E-007     0.264912512939E-005
     0.138828142239E+003     0.133235788796E-004     0.759443996136E-005    -0.386383787510E-007     0.272640188689E-005
     0.140828142239E+003     0.135133399408E-004     0.770260376625E-005    -0.391886858286E-007     0.280477925855E-005
     0.142828142239E+003     0.137030395894E-004     0.781073256597E-005    -0.397388148097E-007     0.288425688817E-005
     0.144828142239E+003     0.138926778454E-004     0.791882637186E-005    -0.402887657520E-007     0.296483441967E-005
     0.146828142239E+003     0.140822547285E-004     0.802688519523E-005    -0.408385387131E-007     0.304651149710E-005
     0.148828142239E+003     0.142717702586E-004     0.813490904742E-005    -0.413881337506E-007     0.312928776460E-005
     0.150828142239E+003     0.144612244557E-004     0.824289793973E-005    -0.419375509222E-007     0.321316286644E-005
     0.152828142239E+003     0.146506173395E-004     0.835085188349E-005    -0.424867902853E-007     0.329813644701E-005
     0.154828142239E+003     0.148399489298E-004     0.845877088999E-005    -0.430358518975E-007     0.338420815081E-005
     0.156828142239E+003     0.150292192466E-004     0.856665497056E-005    -0.435847358164E-007     0.347137762244E-005
     0.158828142239E+003     0.152184283096E-004     0.867450413648E-005    -0.441334420994E-007     0.355964450664E-005
     0.160828142239E+003     0.154075761387E-004     0.878231839906E-005    -0.446819708041E-007     0.364900844825E-005
     0.162828142239E+003     0.155966627537E-004     0.889009776959E-005    -0.452303219878E-007     0.373946909223E-005
     0.164828142239E+003     0.157856881743E-004     0.899784225937E-005    -0.457784957082E-007     0.383102608364E-005
     0.166828142239E+003     0.159746524205E-004     0.910555187968E-005    -0.463264920225E-007     0.392367906769E-005
     0.168828142239E+003     0.161635555119E-004     0.921322664180E-005    -0.468743109883E-007     0.401742768966E-005
     0.170828142239E+003     0.163523974685E-004     0.932086655702E-005    -0.474219526629E-007     0.411227159499E-005
     0.172828142239E+003     0.165411783098E-004     0.942847163661E-005    -0.479694171036E-007     0.420821042920E-005
     0.174828142239E+003     0.167298980558E-004     0.953604189183E-005    -0.485167043680E-007     0.430524383793E-005
     0.176828142239E+003     0.169185567263E-004     0.964357733397E-005    -0.490638145132E-007     0.440337146696E-005
     0.178828142239E+003     0.171071543408E-004     0.975107797427E-005    -0.496107475967E-007     0.450259296215E-005
     0.180828142239E+003     0.172956909193E-004     0.985854382401E-005    -0.501575036757E-007     0.460290796950E-005
     0.182828142239E+003     0.174841664815E-004     0.996597489443E-005    -0.507040828075E-007     0.470431613512E-005
     0.184828142239E+003     0.176725810470E-004     0.100733711968E-004    -0.512504850495E-007     0.480681710522E-005
     0.186828142239E+003     0.178609346357E-004     0.101807327423E-004    -0.517967104588E-007     0.491041052613E-005
     0.188828142239E+003     0.180492272672E-004     0.102880595423E-004    -0.523427590926E-007     0.501509604432E-005
     0.190828142239E+003     0.182374589613E-004     0.103953516079E-004    -0.528886310083E-007     0.512087330634E-005
     0.192828142239E+003     0.184256297377E-004     0.105026089505E-004    -0.534343262630E-007     0.522774195886E-005
     0.194828142239E+003     0.186137396160E-004     0.106098315811E-004    -0.539798449139E-007     0.533570164869E-005
     0.196828142239E+003     0.188017886160E-004     0.107170195111E-004    -0.545251870181E-007     0.544475202273E-005
     0.198828142239E+003     0.189897767574E-004     0.108241727517E-004    -0.550703526328E-007     0.555489272799E-005
     0.200828142239E+003     0.191777040598E-004     0.109312913141E-004    -0.556153418151E-007     0.566612341162E-005
     0.202828142239E+003     0.193655705429E-004     0.110383752094E-004    -0.561601546222E-007     0.577844372087E-005
     0.204828142239E+003     0.195533762263E-004     0.111454244490E-004    -0.567047911110E-007     0.589185330309E-005
     0.206828142239E+003     0.197411211297E-004     0.112524390440E-004    -0.572492513388E-007     0.600635180577E-005
     0.208828142239E+003     0.199288052728E-004     0.113594190055E-004    -0.577935353624E-007     0.612193887649E-005
     0.210828142239E+003     0.201164286751E-004     0.114663643448E-004    -0.583376432390E-007     0.623861416297E-005
     0.212828142239E+003     0.203039913563E-004     0.115732750731E-004    -0.588815750256E-007     0.635637731302E-005
     0.214828142239E+003     0.204914933359E-004     0.116801512015E-004    -0.594253307792E-007     0.647522797458E-005
     0.216828142239E+003     0.206789346337E-004     0.117869927412E-004    -0.599689105567E-007     0.659516579569E-005
     0.218828142239E+003     0.208663152691E-004     0.118937997034E-004    -0.605123144150E-007     0.671619042452E-005
     0.220828142239E+003     0.210536352617E-004     0.120005720992E-004    -0.610555424112E-007     0.683830150934E-005
     0.222828142239E+003     0.212408946311E-004     0.121073099397E-004    -0.615985946022E-007     0.696149869855E-005
     0.224828142239E+003     0.214280933968E-004     0.122140132362E-004    -0.621414710447E-007     0.708578164064E-005
     0.226828142239E+003     0.216152315784E-004     0.123206819997E-004    -0.626841717957E-007     0.721114998423E-005
     0.228828142239E+003     0.218023091953E-004     0.124273162413E-004    -0.632266969121E-007     0.733760337805E-005
     0.230828142239E+003     0.219893262671E-004     0.125339159722E-004    -0.637690464506E-007     0.746514147096E-005
     0.232828142239E+003     0.221762828132E-004     0.126404812035E-004    -0.643112204681E-007     0.759376391189E-005
     0.234828142239E+003     0.223631788532E-004     0.127470119463E-004    -0.648532190213E-007     0.772347034993E-005
     0.236828142239E+003     0.225500144064E-004     0.128535082117E-004    -0.653950421670E-007     0.785426043427E-005
     0.238828142239E+003     0.227367894923E-004     0.129599700106E-004    -0.659366899619E-007     0.798613381419E-005
     0.240828142239E+003     0.229235041303E-004     0.130663973543E-004    -0.664781624627E-007     0.811909013912E-005
     0.242828142239E+003     0.231101583398E-004     0.131727902537E-004    -0.670194597261E-007     0.825312905857E-005
     0.244828142239E+003     0.232967521402E-004     0.132791487199E-004    -0.675605818086E-007     0.838825022219E-005
