 #              _____________________  _______________________             #
 #              ___  __ \__  __ \_  / / /_  /___  ____/_  ___/             #
 #              __  / / /_  /_/ /  / / /_  __/_  __/  _____ \              #
 #              _  /_/ /_  _, _// /_/ / / /_ _  /___  ____/ /              #
 #              /_____/ /_/ |_| \____/  \__/ /_____/  /____/               #
 #                                                                         #
  
 #        time                      c  [M/M]                   concetration [M/M]       zero flux   in    x              directions   cumulative flux
 #-----------------------------------------------------------------------------------------------

     0.000000000000E+000     0.642928000000E-003     0.000000000000E+000     0.000000000000E+000     0.000000000000E+000
     0.100000000000E+000     0.642917593228E-003     0.000000000000E+000     0.000000000000E+000     0.000000000000E+000
     0.206000000000E+000     0.642906562239E-003     0.000000000000E+000     0.000000000000E+000     0.000000000000E+000
     0.318360000000E+000     0.642894869603E-003     0.000000000000E+000     0.000000000000E+000     0.000000000000E+000
     0.437461600000E+000     0.642882475649E-003     0.000000000000E+000     0.000000000000E+000     0.000000000000E+000
     0.563709296000E+000     0.642869338325E-003     0.000000000000E+000     0.000000000000E+000     0.000000000000E+000
     0.697531853760E+000     0.642855413063E-003     0.000000000000E+000     0.000000000000E+000     0.000000000000E+000
     0.839383764986E+000     0.642840652625E-003     0.000000000000E+000     0.000000000000E+000     0.000000000000E+000
     0.989746790885E+000     0.642825006941E-003     0.000000000000E+000     0.000000000000E+000     0.000000000000E+000
     0.114913159834E+001     0.642808422945E-003     0.000000000000E+000     0.000000000000E+000     0.000000000000E+000
     0.131807949424E+001     0.642790844389E-003     0.000000000000E+000     0.000000000000E+000     0.000000000000E+000
     0.149716426389E+001     0.642772211659E-003     0.000000000000E+000     0.000000000000E+000     0.000000000000E+000
     0.168699411973E+001     0.642752461573E-003     0.000000000000E+000     0.000000000000E+000     0.000000000000E+000
     0.188821376691E+001     0.642731527164E-003     0.000000000000E+000     0.000000000000E+000     0.000000000000E+000
     0.210150659292E+001     0.642709337456E-003     0.000000000000E+000     0.000000000000E+000     0.000000000000E+000
     0.232759698850E+001     0.642685817226E-003     0.000000000000E+000     0.000000000000E+000     0.000000000000E+000
     0.256725280781E+001     0.642660886750E-003     0.000000000000E+000     0.000000000000E+000     0.000000000000E+000
     0.282128797628E+001     0.642634461532E-003     0.000000000000E+000     0.000000000000E+000     0.000000000000E+000
     0.309056525485E+001     0.642606452021E-003     0.000000000000E+000     0.000000000000E+000     0.000000000000E+000
     0.337599917015E+001     0.642576763312E-003     0.000000000000E+000     0.000000000000E+000     0.000000000000E+000
     0.367855912035E+001     0.642545294821E-003     0.000000000000E+000     0.000000000000E+000     0.000000000000E+000
     0.399927266758E+001     0.642511939953E-003     0.000000000000E+000     0.000000000000E+000     0.000000000000E+000
     0.433922902763E+001     0.642476585737E-003     0.000000000000E+000     0.000000000000E+000     0.000000000000E+000
     0.469958276929E+001     0.642439112455E-003     0.000000000000E+000     0.000000000000E+000     0.000000000000E+000
     0.508155773545E+001     0.642399393231E-003     0.000000000000E+000     0.000000000000E+000     0.000000000000E+000
     0.548645119957E+001     0.642357293614E-003     0.000000000000E+000     0.000000000000E+000     0.000000000000E+000
     0.591563827155E+001     0.642312671119E-003     0.000000000000E+000     0.000000000000E+000     0.000000000000E+000
     0.637057656784E+001     0.642265374757E-003     0.000000000000E+000     0.000000000000E+000     0.000000000000E+000
     0.685281116191E+001     0.642215244527E-003     0.000000000000E+000     0.000000000000E+000     0.000000000000E+000
     0.736397983162E+001     0.642162110879E-003     0.000000000000E+000     0.000000000000E+000     0.000000000000E+000
     0.790581862152E+001     0.642105794152E-003     0.000000000000E+000     0.000000000000E+000     0.000000000000E+000
     0.848016773881E+001     0.642046103970E-003     0.000000000000E+000     0.000000000000E+000     0.000000000000E+000
     0.908897780314E+001     0.641982838612E-003     0.000000000000E+000     0.000000000000E+000     0.000000000000E+000
     0.973431647133E+001     0.641915784338E-003     0.000000000000E+000     0.000000000000E+000     0.000000000000E+000
     0.104183754596E+002     0.641844714676E-003     0.000000000000E+000     0.000000000000E+000     0.000000000000E+000
     0.111434779872E+002     0.641769389675E-003     0.000000000000E+000     0.000000000000E+000     0.000000000000E+000
     0.119120866664E+002     0.641689555106E-003     0.000000000000E+000     0.000000000000E+000     0.000000000000E+000
     0.127268118664E+002     0.641604941623E-003     0.000000000000E+000     0.000000000000E+000     0.000000000000E+000
     0.135904205784E+002     0.641515263866E-003     0.000000000000E+000     0.000000000000E+000     0.000000000000E+000
     0.145058458131E+002     0.641420219527E-003     0.000000000000E+000     0.000000000000E+000     0.000000000000E+000
     0.154761965619E+002     0.641319488350E-003     0.000000000000E+000     0.000000000000E+000     0.000000000000E+000
     0.165047683556E+002     0.641212731076E-003     0.000000000000E+000     0.000000000000E+000     0.000000000000E+000
     0.175950544569E+002     0.641099588334E-003     0.000000000000E+000     0.000000000000E+000     0.000000000000E+000
     0.187507577243E+002     0.640979679459E-003     0.000000000000E+000     0.000000000000E+000     0.000000000000E+000
     0.199758031878E+002     0.640852601250E-003     0.000000000000E+000     0.000000000000E+000     0.000000000000E+000
     0.212743513791E+002     0.640717926656E-003     0.000000000000E+000     0.000000000000E+000     0.000000000000E+000
     0.226508124618E+002     0.640575203386E-003     0.000000000000E+000     0.000000000000E+000     0.000000000000E+000
     0.241098612095E+002     0.640423952442E-003     0.000000000000E+000     0.000000000000E+000     0.000000000000E+000
     0.256564528821E+002     0.640263666567E-003     0.000000000000E+000     0.000000000000E+000     0.000000000000E+000
     0.272958400550E+002     0.640093808614E-003     0.000000000000E+000     0.000000000000E+000     0.000000000000E+000
     0.290335904583E+002     0.639913809815E-003     0.000000000000E+000     0.000000000000E+000     0.000000000000E+000
     0.308756058858E+002     0.639723067960E-003     0.000000000000E+000     0.000000000000E+000     0.000000000000E+000
     0.328281422390E+002     0.639520945475E-003     0.000000000000E+000     0.000000000000E+000     0.000000000000E+000
     0.348281422390E+002     0.639313976656E-003     0.000000000000E+000     0.000000000000E+000     0.000000000000E+000
     0.368281422390E+002     0.639107074818E-003     0.000000000000E+000     0.000000000000E+000     0.000000000000E+000
     0.388281422390E+002     0.638900239941E-003     0.000000000000E+000     0.000000000000E+000     0.000000000000E+000
     0.408281422390E+002     0.638693472001E-003     0.000000000000E+000     0.000000000000E+000     0.000000000000E+000
     0.428281422390E+002     0.638486770978E-003     0.000000000000E+000     0.000000000000E+000     0.000000000000E+000
     0.448281422390E+002     0.638280136850E-003     0.000000000000E+000     0.000000000000E+000     0.000000000000E+000
     0.468281422390E+002     0.638073569595E-003     0.000000000000E+000     0.000000000000E+000     0.000000000000E+000
     0.488281422390E+002     0.637867069192E-003     0.000000000000E+000     0.000000000000E+000     0.000000000000E+000
     0.508281422390E+002     0.637660635618E-003     0.000000000000E+000     0.000000000000E+000     0.000000000000E+000
     0.528281422390E+002     0.637454268853E-003     0.000000000000E+000     0.000000000000E+000     0.000000000000E+000
     0.548281422390E+002     0.637247968875E-003     0.000000000000E+000     0.000000000000E+000     0.000000000000E+000
     0.568281422390E+002     0.637041735662E-003     0.000000000000E+000     0.000000000000E+000     0.000000000000E+000
     0.588281422390E+002     0.636835569192E-003     0.000000000000E+000     0.000000000000E+000     0.000000000000E+000
     0.608281422390E+002     0.636629469444E-003     0.000000000000E+000     0.000000000000E+000     0.000000000000E+000
     0.628281422390E+002     0.636423436396E-003     0.000000000000E+000     0.000000000000E+000     0.000000000000E+000
     0.648281422390E+002     0.636217470027E-003     0.000000000000E+000     0.000000000000E+000     0.000000000000E+000
     0.668281422390E+002     0.636011570315E-003     0.000000000000E+000     0.000000000000E+000     0.000000000000E+000
     0.688281422390E+002     0.635805737238E-003     0.000000000000E+000     0.000000000000E+000     0.000000000000E+000
     0.708281422390E+002     0.635599970776E-003     0.000000000000E+000     0.000000000000E+000     0.000000000000E+000
     0.728281422390E+002     0.635394270906E-003     0.000000000000E+000     0.000000000000E+000     0.000000000000E+000
     0.748281422390E+002     0.635188637607E-003     0.000000000000E+000     0.000000000000E+000     0.000000000000E+000
     0.768281422390E+002     0.634983070857E-003     0.000000000000E+000     0.000000000000E+000     0.000000000000E+000
     0.788281422390E+002     0.634777570635E-003     0.000000000000E+000     0.000000000000E+000     0.000000000000E+000
     0.808281422390E+002     0.634572136919E-003     0.000000000000E+000     0.000000000000E+000     0.000000000000E+000
     0.828281422390E+002     0.634366769688E-003     0.000000000000E+000     0.000000000000E+000     0.000000000000E+000
     0.848281422390E+002     0.634161468920E-003     0.000000000000E+000     0.000000000000E+000     0.000000000000E+000
     0.868281422390E+002     0.633956234594E-003     0.000000000000E+000     0.000000000000E+000     0.000000000000E+000
     0.888281422390E+002     0.633751066688E-003     0.000000000000E+000     0.000000000000E+000     0.000000000000E+000
     0.908281422390E+002     0.633545965181E-003     0.000000000000E+000     0.000000000000E+000     0.000000000000E+000
     0.928281422390E+002     0.633340930050E-003     0.000000000000E+000     0.000000000000E+000     0.000000000000E+000
     0.948281422390E+002     0.633135961276E-003     0.000000000000E+000     0.000000000000E+000     0.000000000000E+000
     0.968281422390E+002     0.632931058836E-003     0.000000000000E+000     0.000000000000E+000     0.000000000000E+000
     0.988281422390E+002     0.632726222709E-003     0.000000000000E+000     0.000000000000E+000     0.000000000000E+000
     0.100828142239E+003     0.632521452873E-003     0.000000000000E+000     0.000000000000E+000     0.000000000000E+000
     0.102828142239E+003     0.632316749307E-003     0.000000000000E+000     0.000000000000E+000     0.000000000000E+000
     0.104828142239E+003     0.632112111989E-003     0.000000000000E+000     0.000000000000E+000     0.000000000000E+000
     0.106828142239E+003     0.631907540898E-003     0.000000000000E+000     0.000000000000E+000     0.000000000000E+000
     0.108828142239E+003     0.631703036013E-003     0.000000000000E+000     0.000000000000E+000     0.000000000000E+000
     0.110828142239E+003     0.631498597312E-003     0.000000000000E+000     0.000000000000E+000     0.000000000000E+000
     0.112828142239E+003     0.631294224774E-003     0.000000000000E+000     0.000000000000E+000     0.000000000000E+000
     0.114828142239E+003     0.631089918377E-003     0.000000000000E+000     0.000000000000E+000     0.000000000000E+000
     0.116828142239E+003     0.630885678099E-003     0.000000000000E+000     0.000000000000E+000     0.000000000000E+000
     0.118828142239E+003     0.630681503921E-003     0.000000000000E+000     0.000000000000E+000     0.000000000000E+000
     0.120828142239E+003     0.630477395819E-003     0.000000000000E+000     0.000000000000E+000     0.000000000000E+000
     0.122828142239E+003     0.630273353773E-003     0.000000000000E+000     0.000000000000E+000     0.000000000000E+000
     0.124828142239E+003     0.630069377762E-003     0.000000000000E+000     0.000000000000E+000     0.000000000000E+000
     0.126828142239E+003     0.629865467763E-003     0.000000000000E+000     0.000000000000E+000     0.000000000000E+000
     0.128828142239E+003     0.629661623756E-003     0.000000000000E+000     0.000000000000E+000     0.000000000000E+000
     0.130828142239E+003     0.629457845720E-003     0.000000000000E+000     0.000000000000E+000     0.000000000000E+000
     0.132828142239E+003     0.629254133632E-003     0.000000000000E+000     0.000000000000E+000     0.000000000000E+000
     0.134828142239E+003     0.629050487472E-003     0.000000000000E+000     0.000000000000E+000     0.000000000000E+000
     0.136828142239E+003     0.628846907218E-003     0.000000000000E+000     0.000000000000E+000     0.000000000000E+000
     0.138828142239E+003     0.628643392848E-003     0.000000000000E+000     0.000000000000E+000     0.000000000000E+000
     0.140828142239E+003     0.628439944343E-003     0.000000000000E+000     0.000000000000E+000     0.000000000000E+000
     0.142828142239E+003     0.628236561679E-003     0.000000000000E+000     0.000000000000E+000     0.000000000000E+000
     0.144828142239E+003     0.628033244837E-003     0.000000000000E+000     0.000000000000E+000     0.000000000000E+000
     0.146828142239E+003     0.627829993794E-003     0.000000000000E+000     0.000000000000E+000     0.000000000000E+000
     0.148828142239E+003     0.627626808530E-003     0.000000000000E+000     0.000000000000E+000     0.000000000000E+000
     0.150828142239E+003     0.627423689023E-003     0.000000000000E+000     0.000000000000E+000     0.000000000000E+000
     0.152828142239E+003     0.627220635251E-003     0.000000000000E+000     0.000000000000E+000     0.000000000000E+000
     0.154828142239E+003     0.627017647194E-003     0.000000000000E+000     0.000000000000E+000     0.000000000000E+000
     0.156828142239E+003     0.626814724830E-003     0.000000000000E+000     0.000000000000E+000     0.000000000000E+000
     0.158828142239E+003     0.626611868138E-003     0.000000000000E+000     0.000000000000E+000     0.000000000000E+000
     0.160828142239E+003     0.626409077097E-003     0.000000000000E+000     0.000000000000E+000     0.000000000000E+000
     0.162828142239E+003     0.626206351685E-003     0.000000000000E+000     0.000000000000E+000     0.000000000000E+000
     0.164828142239E+003     0.626003691882E-003     0.000000000000E+000     0.000000000000E+000     0.000000000000E+000
     0.166828142239E+003     0.625801097665E-003     0.000000000000E+000     0.000000000000E+000     0.000000000000E+000
     0.168828142239E+003     0.625598569015E-003     0.000000000000E+000     0.000000000000E+000     0.000000000000E+000
     0.170828142239E+003     0.625396105909E-003     0.000000000000E+000     0.000000000000E+000     0.000000000000E+000
     0.172828142239E+003     0.625193708326E-003     0.000000000000E+000     0.000000000000E+000     0.000000000000E+000
     0.174828142239E+003     0.624991376245E-003     0.000000000000E+000     0.000000000000E+000     0.000000000000E+000
     0.176828142239E+003     0.624789109645E-003     0.000000000000E+000     0.000000000000E+000     0.000000000000E+000
     0.178828142239E+003     0.624586908505E-003     0.000000000000E+000     0.000000000000E+000     0.000000000000E+000
     0.180828142239E+003     0.624384772804E-003     0.000000000000E+000     0.000000000000E+000     0.000000000000E+000
     0.182828142239E+003     0.624182702520E-003     0.000000000000E+000     0.000000000000E+000     0.000000000000E+000
     0.184828142239E+003     0.623980697632E-003     0.000000000000E+000     0.000000000000E+000     0.000000000000E+000
     0.186828142239E+003     0.623778758119E-003     0.000000000000E+000     0.000000000000E+000     0.000000000000E+000
     0.188828142239E+003     0.623576883961E-003     0.000000000000E+000     0.000000000000E+000     0.000000000000E+000
     0.190828142239E+003     0.623375075134E-003     0.000000000000E+000     0.000000000000E+000     0.000000000000E+000
     0.192828142239E+003     0.623173331620E-003     0.000000000000E+000     0.000000000000E+000     0.000000000000E+000
     0.194828142239E+003     0.622971653396E-003     0.000000000000E+000     0.000000000000E+000     0.000000000000E+000
     0.196828142239E+003     0.622770040441E-003     0.000000000000E+000     0.000000000000E+000     0.000000000000E+000
     0.198828142239E+003     0.622568492735E-003     0.000000000000E+000     0.000000000000E+000     0.000000000000E+000
     0.200828142239E+003     0.622367010255E-003     0.000000000000E+000     0.000000000000E+000     0.000000000000E+000
     0.202828142239E+003     0.622165592982E-003     0.000000000000E+000     0.000000000000E+000     0.000000000000E+000
     0.204828142239E+003     0.621964240893E-003     0.000000000000E+000     0.000000000000E+000     0.000000000000E+000
     0.206828142239E+003     0.621762953968E-003     0.000000000000E+000     0.000000000000E+000     0.000000000000E+000
     0.208828142239E+003     0.621561732186E-003     0.000000000000E+000     0.000000000000E+000     0.000000000000E+000
     0.210828142239E+003     0.621360575526E-003     0.000000000000E+000     0.000000000000E+000     0.000000000000E+000
     0.212828142239E+003     0.621159483966E-003     0.000000000000E+000     0.000000000000E+000     0.000000000000E+000
     0.214828142239E+003     0.620958457485E-003     0.000000000000E+000     0.000000000000E+000     0.000000000000E+000
     0.216828142239E+003     0.620757496063E-003     0.000000000000E+000     0.000000000000E+000     0.000000000000E+000
     0.218828142239E+003     0.620556599679E-003     0.000000000000E+000     0.000000000000E+000     0.000000000000E+000
     0.220828142239E+003     0.620355768310E-003     0.000000000000E+000     0.000000000000E+000     0.000000000000E+000
     0.222828142239E+003     0.620155001937E-003     0.000000000000E+000     0.000000000000E+000     0.000000000000E+000
     0.224828142239E+003     0.619954300538E-003     0.000000000000E+000     0.000000000000E+000     0.000000000000E+000
     0.226828142239E+003     0.619753664092E-003     0.000000000000E+000     0.000000000000E+000     0.000000000000E+000
     0.228828142239E+003     0.619553092579E-003     0.000000000000E+000     0.000000000000E+000     0.000000000000E+000
     0.230828142239E+003     0.619352585976E-003     0.000000000000E+000     0.000000000000E+000     0.000000000000E+000
     0.232828142239E+003     0.619152144264E-003     0.000000000000E+000     0.000000000000E+000     0.000000000000E+000
     0.234828142239E+003     0.618951767421E-003     0.000000000000E+000     0.000000000000E+000     0.000000000000E+000
     0.236828142239E+003     0.618751455426E-003     0.000000000000E+000     0.000000000000E+000     0.000000000000E+000
     0.238828142239E+003     0.618551208258E-003     0.000000000000E+000     0.000000000000E+000     0.000000000000E+000
     0.240828142239E+003     0.618351025897E-003     0.000000000000E+000     0.000000000000E+000     0.000000000000E+000
     0.242828142239E+003     0.618150908321E-003     0.000000000000E+000     0.000000000000E+000     0.000000000000E+000
     0.244828142239E+003     0.617950855508E-003     0.000000000000E+000     0.000000000000E+000     0.000000000000E+000
