 #              _____________________  _______________________             #
 #              ___  __ \__  __ \_  / / /_  /___  ____/_  ___/             #
 #              __  / / /_  /_/ /  / / /_  __/_  __/  _____ \              #
 #              _  /_/ /_  _, _// /_/ / / /_ _  /___  ____/ /              #
 #              /_____/ /_/ |_| \____/  \__/ /_____/  /____/               #
 #                                                                         #
  
 #        time                      c  [M/M]                   concetration [M/M]       zero flux   in    x              directions   cumulative flux
 #-----------------------------------------------------------------------------------------------

     0.000000000000E+000     0.642928000000E-003     0.000000000000E+000     0.000000000000E+000     0.000000000000E+000
     0.100000000000E+000     0.638738672106E-003     0.000000000000E+000     0.000000000000E+000     0.000000000000E+000
     0.206000000000E+000     0.634328644269E-003     0.000000000000E+000     0.000000000000E+000     0.000000000000E+000
     0.318360000000E+000     0.629688212022E-003     0.000000000000E+000     0.000000000000E+000     0.000000000000E+000
     0.437461600000E+000     0.624807480056E-003     0.000000000000E+000     0.000000000000E+000     0.000000000000E+000
     0.563709296000E+000     0.619676390985E-003     0.000000000000E+000     0.000000000000E+000     0.000000000000E+000
     0.697531853760E+000     0.614284759396E-003     0.000000000000E+000     0.000000000000E+000     0.000000000000E+000
     0.839383764986E+000     0.608622311703E-003     0.000000000000E+000     0.000000000000E+000     0.000000000000E+000
     0.989746790885E+000     0.602678732351E-003     0.000000000000E+000     0.000000000000E+000     0.000000000000E+000
     0.114913159834E+001     0.596443716923E-003     0.000000000000E+000     0.000000000000E+000     0.000000000000E+000
     0.131807949424E+001     0.589907032729E-003     0.000000000000E+000     0.000000000000E+000     0.000000000000E+000
     0.149716426389E+001     0.583058587432E-003     0.000000000000E+000     0.000000000000E+000     0.000000000000E+000
     0.168699411973E+001     0.575888506279E-003     0.000000000000E+000     0.000000000000E+000     0.000000000000E+000
     0.188821376691E+001     0.568387218471E-003     0.000000000000E+000     0.000000000000E+000     0.000000000000E+000
     0.210150659292E+001     0.560545553158E-003     0.000000000000E+000     0.000000000000E+000     0.000000000000E+000
     0.232759698850E+001     0.552354845522E-003     0.000000000000E+000     0.000000000000E+000     0.000000000000E+000
     0.256725280781E+001     0.543807053288E-003     0.000000000000E+000     0.000000000000E+000     0.000000000000E+000
     0.282128797628E+001     0.534894883934E-003     0.000000000000E+000     0.000000000000E+000     0.000000000000E+000
     0.309056525485E+001     0.525611932719E-003     0.000000000000E+000     0.000000000000E+000     0.000000000000E+000
     0.337599917015E+001     0.515952831497E-003     0.000000000000E+000     0.000000000000E+000     0.000000000000E+000
     0.367855912035E+001     0.505913408063E-003     0.000000000000E+000     0.000000000000E+000     0.000000000000E+000
     0.399927266758E+001     0.495490855561E-003     0.000000000000E+000     0.000000000000E+000     0.000000000000E+000
     0.433922902763E+001     0.484683911172E-003     0.000000000000E+000     0.000000000000E+000     0.000000000000E+000
     0.469958276929E+001     0.473493042982E-003     0.000000000000E+000     0.000000000000E+000     0.000000000000E+000
     0.508155773545E+001     0.461920643557E-003     0.000000000000E+000     0.000000000000E+000     0.000000000000E+000
     0.548645119957E+001     0.449971228290E-003     0.000000000000E+000     0.000000000000E+000     0.000000000000E+000
     0.591563827155E+001     0.437651636141E-003     0.000000000000E+000     0.000000000000E+000     0.000000000000E+000
     0.637057656784E+001     0.424971229850E-003     0.000000000000E+000     0.000000000000E+000     0.000000000000E+000
     0.685281116191E+001     0.411942092126E-003     0.000000000000E+000     0.000000000000E+000     0.000000000000E+000
     0.736397983162E+001     0.398579213743E-003     0.000000000000E+000     0.000000000000E+000     0.000000000000E+000
     0.790581862152E+001     0.384900668830E-003     0.000000000000E+000     0.000000000000E+000     0.000000000000E+000
     0.848016773881E+001     0.370927772038E-003     0.000000000000E+000     0.000000000000E+000     0.000000000000E+000
     0.908897780314E+001     0.356685211660E-003     0.000000000000E+000     0.000000000000E+000     0.000000000000E+000
     0.973431647133E+001     0.342201152223E-003     0.000000000000E+000     0.000000000000E+000     0.000000000000E+000
     0.104183754596E+002     0.327507299581E-003     0.000000000000E+000     0.000000000000E+000     0.000000000000E+000
     0.111434779872E+002     0.312638921200E-003     0.000000000000E+000     0.000000000000E+000     0.000000000000E+000
     0.119120866664E+002     0.297634814100E-003     0.000000000000E+000     0.000000000000E+000     0.000000000000E+000
     0.127268118664E+002     0.282537212926E-003     0.000000000000E+000     0.000000000000E+000     0.000000000000E+000
     0.135904205784E+002     0.267391630903E-003     0.000000000000E+000     0.000000000000E+000     0.000000000000E+000
     0.145058458131E+002     0.252246626986E-003     0.000000000000E+000     0.000000000000E+000     0.000000000000E+000
     0.154761965619E+002     0.237153493459E-003     0.000000000000E+000     0.000000000000E+000     0.000000000000E+000
     0.164761965619E+002     0.222556562713E-003     0.000000000000E+000     0.000000000000E+000     0.000000000000E+000
     0.174761965619E+002     0.208858081255E-003     0.000000000000E+000     0.000000000000E+000     0.000000000000E+000
     0.184761965619E+002     0.196002749025E-003     0.000000000000E+000     0.000000000000E+000     0.000000000000E+000
     0.194761965619E+002     0.183938669716E-003     0.000000000000E+000     0.000000000000E+000     0.000000000000E+000
     0.204761965619E+002     0.172617141265E-003     0.000000000000E+000     0.000000000000E+000     0.000000000000E+000
     0.214761965619E+002     0.161992459251E-003     0.000000000000E+000     0.000000000000E+000     0.000000000000E+000
     0.224761965619E+002     0.152021732383E-003     0.000000000000E+000     0.000000000000E+000     0.000000000000E+000
     0.234761965619E+002     0.142664709355E-003     0.000000000000E+000     0.000000000000E+000     0.000000000000E+000
     0.244761965619E+002     0.133883616350E-003     0.000000000000E+000     0.000000000000E+000     0.000000000000E+000
     0.254761965619E+002     0.125643004553E-003     0.000000000000E+000     0.000000000000E+000     0.000000000000E+000
     0.264761965619E+002     0.117909607042E-003     0.000000000000E+000     0.000000000000E+000     0.000000000000E+000
     0.274761965619E+002     0.110652204491E-003     0.000000000000E+000     0.000000000000E+000     0.000000000000E+000
     0.284761965619E+002     0.103841499145E-003     0.000000000000E+000     0.000000000000E+000     0.000000000000E+000
     0.294761965619E+002     0.974499965382E-004     0.000000000000E+000     0.000000000000E+000     0.000000000000E+000
     0.304761965619E+002     0.914518945077E-004     0.000000000000E+000     0.000000000000E+000     0.000000000000E+000
     0.314761965619E+002     0.858229790266E-004     0.000000000000E+000     0.000000000000E+000     0.000000000000E+000
     0.324761965619E+002     0.805405264555E-004     0.000000000000E+000     0.000000000000E+000     0.000000000000E+000
     0.334761965619E+002     0.755832118076E-004     0.000000000000E+000     0.000000000000E+000     0.000000000000E+000
     0.344761965619E+002     0.709310226612E-004     0.000000000000E+000     0.000000000000E+000     0.000000000000E+000
     0.354761965619E+002     0.665651783701E-004     0.000000000000E+000     0.000000000000E+000     0.000000000000E+000
     0.364761965619E+002     0.624680542477E-004     0.000000000000E+000     0.000000000000E+000     0.000000000000E+000
     0.374761965619E+002     0.586231104166E-004     0.000000000000E+000     0.000000000000E+000     0.000000000000E+000
     0.384761965619E+002     0.550148250383E-004     0.000000000000E+000     0.000000000000E+000     0.000000000000E+000
     0.394761965619E+002     0.516286316520E-004     0.000000000000E+000     0.000000000000E+000     0.000000000000E+000
     0.404761965619E+002     0.484508603708E-004     0.000000000000E+000     0.000000000000E+000     0.000000000000E+000
     0.414761965619E+002     0.454686826972E-004     0.000000000000E+000     0.000000000000E+000     0.000000000000E+000
     0.424761965619E+002     0.426700597346E-004     0.000000000000E+000     0.000000000000E+000     0.000000000000E+000
     0.434761965619E+002     0.400436935876E-004     0.000000000000E+000     0.000000000000E+000     0.000000000000E+000
     0.444761965619E+002     0.375789817523E-004     0.000000000000E+000     0.000000000000E+000     0.000000000000E+000
     0.454761965619E+002     0.352659743150E-004     0.000000000000E+000     0.000000000000E+000     0.000000000000E+000
     0.464761965619E+002     0.330953337849E-004     0.000000000000E+000     0.000000000000E+000     0.000000000000E+000
     0.474761965619E+002     0.310582973987E-004     0.000000000000E+000     0.000000000000E+000     0.000000000000E+000
     0.484761965619E+002     0.291466417465E-004     0.000000000000E+000     0.000000000000E+000     0.000000000000E+000
     0.494761965619E+002     0.273526495735E-004     0.000000000000E+000     0.000000000000E+000     0.000000000000E+000
     0.504761965619E+002     0.256690786266E-004     0.000000000000E+000     0.000000000000E+000     0.000000000000E+000
     0.514761965619E+002     0.240891324173E-004     0.000000000000E+000     0.000000000000E+000     0.000000000000E+000
     0.524761965619E+002     0.226064327847E-004     0.000000000000E+000     0.000000000000E+000     0.000000000000E+000
     0.534761965619E+002     0.212149941473E-004     0.000000000000E+000     0.000000000000E+000     0.000000000000E+000
     0.544761965619E+002     0.199091993398E-004     0.000000000000E+000     0.000000000000E+000     0.000000000000E+000
     0.554761965619E+002     0.186837769362E-004     0.000000000000E+000     0.000000000000E+000     0.000000000000E+000
     0.564761965619E+002     0.175337799700E-004     0.000000000000E+000     0.000000000000E+000     0.000000000000E+000
     0.574761965619E+002     0.164545659630E-004     0.000000000000E+000     0.000000000000E+000     0.000000000000E+000
     0.584761965619E+002     0.154417781845E-004     0.000000000000E+000     0.000000000000E+000     0.000000000000E+000
     0.594761965619E+002     0.144913280626E-004     0.000000000000E+000     0.000000000000E+000     0.000000000000E+000
     0.604761965619E+002     0.135993786797E-004     0.000000000000E+000     0.000000000000E+000     0.000000000000E+000
     0.614761965619E+002     0.127623292824E-004     0.000000000000E+000     0.000000000000E+000     0.000000000000E+000
     0.624761965619E+002     0.119768007457E-004     0.000000000000E+000     0.000000000000E+000     0.000000000000E+000
     0.634761965619E+002     0.112396219317E-004     0.000000000000E+000     0.000000000000E+000     0.000000000000E+000
     0.644761965619E+002     0.105478168878E-004     0.000000000000E+000     0.000000000000E+000     0.000000000000E+000
     0.654761965619E+002     0.989859283299E-005     0.000000000000E+000     0.000000000000E+000     0.000000000000E+000
     0.664761965619E+002     0.928932888347E-005     0.000000000000E+000     0.000000000000E+000     0.000000000000E+000
     0.674761965619E+002     0.871756547231E-005     0.000000000000E+000     0.000000000000E+000     0.000000000000E+000
     0.684761965619E+002     0.818099442030E-005     0.000000000000E+000     0.000000000000E+000     0.000000000000E+000
     0.694761965619E+002     0.767744961796E-005     0.000000000000E+000     0.000000000000E+000     0.000000000000E+000
     0.704761965619E+002     0.720489828109E-005     0.000000000000E+000     0.000000000000E+000     0.000000000000E+000
     0.714761965619E+002     0.676143274445E-005     0.000000000000E+000     0.000000000000E+000     0.000000000000E+000
     0.724761965619E+002     0.634526276072E-005     0.000000000000E+000     0.000000000000E+000     0.000000000000E+000
     0.734761965619E+002     0.595470827328E-005     0.000000000000E+000     0.000000000000E+000     0.000000000000E+000
     0.744761965619E+002     0.558819263393E-005     0.000000000000E+000     0.000000000000E+000     0.000000000000E+000
     0.754761965619E+002     0.524423623808E-005     0.000000000000E+000     0.000000000000E+000     0.000000000000E+000
     0.764761965619E+002     0.492145055162E-005     0.000000000000E+000     0.000000000000E+000     0.000000000000E+000
     0.774761965619E+002     0.461853250549E-005     0.000000000000E+000     0.000000000000E+000     0.000000000000E+000
     0.784761965619E+002     0.433425923526E-005     0.000000000000E+000     0.000000000000E+000     0.000000000000E+000
     0.794761965619E+002     0.406748314452E-005     0.000000000000E+000     0.000000000000E+000     0.000000000000E+000
     0.804761965619E+002     0.381712727202E-005     0.000000000000E+000     0.000000000000E+000     0.000000000000E+000
     0.814761965619E+002     0.358218094411E-005     0.000000000000E+000     0.000000000000E+000     0.000000000000E+000
     0.824761965619E+002     0.336169569467E-005     0.000000000000E+000     0.000000000000E+000     0.000000000000E+000
     0.834761965619E+002     0.315478143619E-005     0.000000000000E+000     0.000000000000E+000     0.000000000000E+000
     0.844761965619E+002     0.296060286656E-005     0.000000000000E+000     0.000000000000E+000     0.000000000000E+000
     0.854761965619E+002     0.277837609697E-005     0.000000000000E+000     0.000000000000E+000     0.000000000000E+000
     0.864761965619E+002     0.260736548742E-005     0.000000000000E+000     0.000000000000E+000     0.000000000000E+000
     0.874761965619E+002     0.244688067695E-005     0.000000000000E+000     0.000000000000E+000     0.000000000000E+000
     0.884761965619E+002     0.229627379672E-005     0.000000000000E+000     0.000000000000E+000     0.000000000000E+000
     0.894761965619E+002     0.215493685458E-005     0.000000000000E+000     0.000000000000E+000     0.000000000000E+000
     0.904761965619E+002     0.202229928062E-005     0.000000000000E+000     0.000000000000E+000     0.000000000000E+000
     0.914761965619E+002     0.189782562385E-005     0.000000000000E+000     0.000000000000E+000     0.000000000000E+000
     0.924761965619E+002     0.178101339057E-005     0.000000000000E+000     0.000000000000E+000     0.000000000000E+000
     0.934761965619E+002     0.167139101588E-005     0.000000000000E+000     0.000000000000E+000     0.000000000000E+000
     0.944761965619E+002     0.156851595993E-005     0.000000000000E+000     0.000000000000E+000     0.000000000000E+000
     0.954761965619E+002     0.147197292147E-005     0.000000000000E+000     0.000000000000E+000     0.000000000000E+000
     0.964761965619E+002     0.138137216125E-005     0.000000000000E+000     0.000000000000E+000     0.000000000000E+000
     0.974761965619E+002     0.129634792873E-005     0.000000000000E+000     0.000000000000E+000     0.000000000000E+000
     0.984761965619E+002     0.121655698547E-005     0.000000000000E+000     0.000000000000E+000     0.000000000000E+000
     0.994761965619E+002     0.114167721960E-005     0.000000000000E+000     0.000000000000E+000     0.000000000000E+000
     0.100476196562E+003     0.107140634539E-005     0.000000000000E+000     0.000000000000E+000     0.000000000000E+000
     0.101476196562E+003     0.100546068295E-005     0.000000000000E+000     0.000000000000E+000     0.000000000000E+000
     0.102476196562E+003     0.943574013090E-006     0.000000000000E+000     0.000000000000E+000     0.000000000000E+000
     0.103476196562E+003     0.885496502521E-006     0.000000000000E+000     0.000000000000E+000     0.000000000000E+000
     0.104476196562E+003     0.830993695353E-006     0.000000000000E+000     0.000000000000E+000     0.000000000000E+000
     0.105476196562E+003     0.779845566584E-006     0.000000000000E+000     0.000000000000E+000     0.000000000000E+000
     0.106476196562E+003     0.731845633874E-006     0.000000000000E+000     0.000000000000E+000     0.000000000000E+000
     0.107476196562E+003     0.686800123987E-006     0.000000000000E+000     0.000000000000E+000     0.000000000000E+000
     0.108476196562E+003     0.644527190538E-006     0.000000000000E+000     0.000000000000E+000     0.000000000000E+000
     0.109476196562E+003     0.604856179890E-006     0.000000000000E+000     0.000000000000E+000     0.000000000000E+000
     0.110476196562E+003     0.567626942233E-006     0.000000000000E+000     0.000000000000E+000     0.000000000000E+000
     0.111476196562E+003     0.532689185067E-006     0.000000000000E+000     0.000000000000E+000     0.000000000000E+000
     0.112476196562E+003     0.499901866482E-006     0.000000000000E+000     0.000000000000E+000     0.000000000000E+000
     0.113476196562E+003     0.469132625775E-006     0.000000000000E+000     0.000000000000E+000     0.000000000000E+000
     0.114476196562E+003     0.440257249118E-006     0.000000000000E+000     0.000000000000E+000     0.000000000000E+000
     0.115476196562E+003     0.413159168115E-006     0.000000000000E+000     0.000000000000E+000     0.000000000000E+000
     0.116476196562E+003     0.387728989221E-006     0.000000000000E+000     0.000000000000E+000     0.000000000000E+000
     0.117476196562E+003     0.363864052123E-006     0.000000000000E+000     0.000000000000E+000     0.000000000000E+000
     0.118476196562E+003     0.341468015311E-006     0.000000000000E+000     0.000000000000E+000     0.000000000000E+000
     0.119476196562E+003     0.320450467145E-006     0.000000000000E+000     0.000000000000E+000     0.000000000000E+000
     0.120476196562E+003     0.300726560875E-006     0.000000000000E+000     0.000000000000E+000     0.000000000000E+000
     0.121476196562E+003     0.282216672117E-006     0.000000000000E+000     0.000000000000E+000     0.000000000000E+000
     0.122476196562E+003     0.264846077410E-006     0.000000000000E+000     0.000000000000E+000     0.000000000000E+000
     0.123476196562E+003     0.248544652565E-006     0.000000000000E+000     0.000000000000E+000     0.000000000000E+000
     0.124476196562E+003     0.233246589577E-006     0.000000000000E+000     0.000000000000E+000     0.000000000000E+000
     0.125476196562E+003     0.218890130960E-006     0.000000000000E+000     0.000000000000E+000     0.000000000000E+000
     0.126476196562E+003     0.205417320435E-006     0.000000000000E+000     0.000000000000E+000     0.000000000000E+000
     0.127476196562E+003     0.192773768967E-006     0.000000000000E+000     0.000000000000E+000     0.000000000000E+000
     0.128476196562E+003     0.180908435194E-006     0.000000000000E+000     0.000000000000E+000     0.000000000000E+000
     0.129476196562E+003     0.169773419380E-006     0.000000000000E+000     0.000000000000E+000     0.000000000000E+000
     0.130476196562E+003     0.159323770045E-006     0.000000000000E+000     0.000000000000E+000     0.000000000000E+000
     0.131476196562E+003     0.149517302497E-006     0.000000000000E+000     0.000000000000E+000     0.000000000000E+000
     0.132476196562E+003     0.140314428536E-006     0.000000000000E+000     0.000000000000E+000     0.000000000000E+000
     0.133476196562E+003     0.131677996636E-006     0.000000000000E+000     0.000000000000E+000     0.000000000000E+000
