 #              _____________________  _______________________             #
 #              ___  __ \__  __ \_  / / /_  /___  ____/_  ___/             #
 #              __  / / /_  /_/ /  / / /_  __/_  __/  _____ \              #
 #              _  /_/ /_  _, _// /_/ / / /_ _  /___  ____/ /              #
 #              /_____/ /_/ |_| \____/  \__/ /_____/  /____/               #
 #                                                                         #
  
 #        time                      c  [M/L^3]                   concetration [M/L^3]       concentration flux [M.L^{-2}.T^{-1}]   in    x              directions   cumulative flux
 #-----------------------------------------------------------------------------------------------

     0.000000000000E+000     0.000000000000E+000     0.000000000000E+000     0.000000000000E+000     0.000000000000E+000
     0.100000000000E+000     0.239300935315E-008     0.136401533129E-008     0.693972712391E-011     0.693972712391E-012
     0.206000000000E+000     0.492958853781E-008     0.280986546655E-008     0.142958067593E-010     0.220932822888E-011
     0.318360000000E+000     0.761835041780E-008     0.434245973815E-008     0.220932162112E-010     0.469172200236E-011
     0.437461600000E+000     0.104684244647E-007     0.596700194485E-008     0.303584309473E-010     0.830745970168E-011
     0.563709296000E+000     0.134894877344E-007     0.768900800858E-008     0.391195144296E-010     0.132462082671E-010
     0.697531853760E+000     0.166917976993E-007     0.951432468861E-008     0.484062133282E-010     0.197240515461E-010
     0.839383764986E+000     0.200862270474E-007     0.114491494170E-007     0.582500584376E-010     0.279869336645E-010
     0.989746790885E+000     0.236843005668E-007     0.135000513231E-007     0.686844716437E-010     0.383145386531E-010
     0.114913159834E+001     0.274982342396E-007     0.156739935166E-007     0.797448792949E-010     0.510246608849E-010
     0.131807949424E+001     0.315409766769E-007     0.179783567058E-007     0.914688323632E-010     0.664781276531E-010
     0.149716426389E+001     0.358262530360E-007     0.204209642305E-007     0.103896133805E-009     0.850843428435E-010
     0.168699411973E+001     0.403686115673E-007     0.230101085934E-007     0.117068973545E-009     0.107307529214E-009
     0.188821376691E+001     0.451834729483E-007     0.257545795805E-007     0.131032071550E-009     0.133673756421E-009
     0.210150659292E+001     0.502871825718E-007     0.286636940659E-007     0.145832829458E-009     0.164778852742E-009
     0.232759698850E+001     0.556970659636E-007     0.317473275993E-007     0.161521491295E-009     0.201297310603E-009
     0.256725280781E+001     0.614314875175E-007     0.350159478850E-007     0.178151313800E-009     0.243992309673E-009
     0.282128797628E+001     0.675099127456E-007     0.384806502650E-007     0.195778746962E-009     0.293726996640E-009
     0.309056525485E+001     0.739529742525E-007     0.421531953239E-007     0.214463625332E-009     0.351477178023E-009
     0.337599917015E+001     0.807825416588E-007     0.460460487455E-007     0.234269370810E-009     0.418345601766E-009
     0.367855912035E+001     0.880217957043E-007     0.501724235514E-007     0.255263207542E-009     0.495578025130E-009
     0.399927266758E+001     0.956953067855E-007     0.545463248678E-007     0.277516389678E-009     0.584581290876E-009
     0.433922902763E+001     0.103829118188E-006     0.591825973670E-007     0.301104442744E-009     0.686943661227E-009
     0.469958276929E+001     0.112450834293E-006     0.640969755473E-007     0.326107419451E-009     0.804457690009E-009
     0.508155773545E+001     0.121589714063E-006     0.693061370159E-007     0.352610170782E-009     0.939145948060E-009
     0.548645119957E+001     0.131276770101E-006     0.748277589574E-007     0.380702633292E-009     0.109328995606E-008
     0.591563827155E+001     0.141544873640E-006     0.806805779751E-007     0.410480133557E-009     0.126946272268E-008
     0.637057656784E+001     0.152428865799E-006     0.868844535056E-007     0.442043710818E-009     0.147056533537E-008
     0.685281116191E+001     0.163965675476E-006     0.934604350215E-007     0.475500458882E-009     0.169986810614E-008
     0.736397983162E+001     0.176194444287E-006     0.100430833244E-006     0.510963888433E-009     0.196105683726E-008
     0.790581862152E+001     0.189156658954E-006     0.107819295604E-006     0.548554310968E-009     0.225828484131E-008
     0.848016773881E+001     0.202896291594E-006     0.115650886209E-006     0.588399245623E-009     0.259623142865E-008
     0.908897780314E+001     0.217459948372E-006     0.123952170572E-006     0.630633850278E-009     0.298016766360E-008
     0.973431647133E+001     0.232897027013E-006     0.132751305397E-006     0.675401378338E-009     0.341603028959E-008
     0.104183754596E+002     0.249259883706E-006     0.142078133712E-006     0.722853662747E-009     0.391050483480E-008
     0.111434779872E+002     0.266604009939E-006     0.151964285665E-006     0.773151628825E-009     0.447111903507E-008
     0.119120866664E+002     0.284988219874E-006     0.162443285328E-006     0.826465837636E-009     0.510634785096E-008
     0.127268118664E+002     0.304474848858E-006     0.173550663849E-006     0.882977061688E-009     0.582573151413E-008
     0.135904205784E+002     0.325129963751E-006     0.185324079338E-006     0.942876894878E-009     0.664000821487E-008
     0.145058458131E+002     0.347023585755E-006     0.197803443881E-006     0.100636839869E-008     0.756126324244E-008
     0.154761965619E+002     0.370229926480E-006     0.211031058094E-006     0.107366678679E-008     0.860309661295E-008
     0.165047683556E+002     0.394827638022E-006     0.225051753672E-006     0.114500015026E-008     0.978081147131E-008
     0.175950544569E+002     0.420900077890E-006     0.239913044397E-006     0.122061022588E-008     0.111116258357E-007
     0.187507577243E+002     0.448535589635E-006     0.255665286092E-006     0.130075320994E-008     0.126149105706E-007
     0.199758031878E+002     0.477827800109E-006     0.272361846062E-006     0.138570062032E-008     0.143124568292E-007
     0.212743513791E+002     0.508875934328E-006     0.290059282567E-006     0.147574020955E-008     0.162287766091E-007
     0.226508124618E+002     0.541785148957E-006     0.308817534905E-006     0.157117693198E-008     0.183914405101E-007
     0.241098612095E+002     0.576666885514E-006     0.328700124743E-006     0.167233396799E-008     0.208314572918E-007
     0.256564528821E+002     0.613639244431E-006     0.349774369326E-006     0.177955380885E-008     0.235837003935E-007
     0.272958400550E+002     0.652827381182E-006     0.372111607274E-006     0.189319940543E-008     0.266873872145E-007
     0.290335904583E+002     0.694363925764E-006     0.395787437685E-006     0.201365538472E-008     0.301866176714E-007
     0.308756058858E+002     0.738389426869E-006     0.420881973315E-006     0.214132933792E-008     0.341309793472E-007
     0.328281422390E+002     0.785052822185E-006     0.447480108646E-006     0.227665318434E-008     0.385762274532E-007
     0.348281422390E+002     0.832846730144E-006     0.474722636182E-006     0.241525551742E-008     0.434067384880E-007
     0.368281422390E+002     0.880636823942E-006     0.501962989647E-006     0.255384678943E-008     0.485144320669E-007
     0.388281422390E+002     0.928423103882E-006     0.529201169213E-006     0.269242700126E-008     0.538992860694E-007
     0.408281422390E+002     0.976205570270E-006     0.556437175054E-006     0.283099615378E-008     0.595612783770E-007
     0.428281422390E+002     0.102398422341E-005     0.583671007343E-006     0.296955424789E-008     0.655003868727E-007
     0.448281422390E+002     0.107175906360E-005     0.610902666255E-006     0.310810128446E-008     0.717165894417E-007
     0.468281422390E+002     0.111953009116E-005     0.638132151961E-006     0.324663726437E-008     0.782098639704E-007
     0.488281422390E+002     0.116729730638E-005     0.665359464637E-006     0.338516218851E-008     0.849801883474E-007
     0.508281422390E+002     0.121506070957E-005     0.692584604455E-006     0.352367605775E-008     0.920275404629E-007
     0.528281422390E+002     0.126282030103E-005     0.719807571588E-006     0.366217887299E-008     0.993518982089E-007
     0.548281422390E+002     0.131057608107E-005     0.747028366210E-006     0.380067063511E-008     0.106953239479E-006
     0.568281422390E+002     0.135832804999E-005     0.774246988495E-006     0.393915134497E-008     0.114831542169E-006
     0.588281422390E+002     0.140607620810E-005     0.801463438615E-006     0.407762100348E-008     0.122986784176E-006
     0.608281422390E+002     0.145382055569E-005     0.828677716745E-006     0.421607961151E-008     0.131418943399E-006
     0.628281422390E+002     0.150156109308E-005     0.855889823056E-006     0.435452716994E-008     0.140127997739E-006
     0.648281422390E+002     0.154929782057E-005     0.883099757724E-006     0.449296367965E-008     0.149113925098E-006
     0.668281422390E+002     0.159703073846E-005     0.910307520920E-006     0.463138914153E-008     0.158376703381E-006
     0.688281422390E+002     0.164475984705E-005     0.937513112819E-006     0.476980355645E-008     0.167916310494E-006
     0.708281422390E+002     0.169248514666E-005     0.964716533594E-006     0.490820692530E-008     0.177732724345E-006
     0.728281422390E+002     0.174020663757E-005     0.991917783417E-006     0.504659924897E-008     0.187825922843E-006
     0.748281422390E+002     0.178792432011E-005     0.101911686246E-005     0.518498052832E-008     0.198195883899E-006
     0.768281422390E+002     0.183563819457E-005     0.104631377090E-005     0.532335076425E-008     0.208842585428E-006
     0.788281422390E+002     0.188334826125E-005     0.107350850891E-005     0.546170995763E-008     0.219766005343E-006
     0.808281422390E+002     0.193105452046E-005     0.110070107666E-005     0.560005810934E-008     0.230966121562E-006
     0.828281422390E+002     0.197875697251E-005     0.112789147433E-005     0.573839522028E-008     0.242442912002E-006
     0.848281422390E+002     0.202645561769E-005     0.115507970208E-005     0.587672129131E-008     0.254196354585E-006
     0.868281422390E+002     0.207415045632E-005     0.118226576010E-005     0.601503632332E-008     0.266226427232E-006
     0.888281422390E+002     0.212184148869E-005     0.120944964855E-005     0.615334031719E-008     0.278533107866E-006
     0.908281422390E+002     0.216952871510E-005     0.123663136761E-005     0.629163327380E-008     0.291116374414E-006
     0.928281422390E+002     0.221721213587E-005     0.126381091745E-005     0.642991519403E-008     0.303976204802E-006
     0.948281422390E+002     0.226489175130E-005     0.129098829824E-005     0.656818607876E-008     0.317112576959E-006
     0.968281422390E+002     0.231256756168E-005     0.131816351016E-005     0.670644592888E-008     0.330525468817E-006
     0.988281422390E+002     0.236023956733E-005     0.134533655338E-005     0.684469474526E-008     0.344214858307E-006
     0.100828142239E+003     0.240790776855E-005     0.137250742807E-005     0.698293252878E-008     0.358180723365E-006
     0.102828142239E+003     0.245557216563E-005     0.139967613441E-005     0.712115928033E-008     0.372423041926E-006
     0.104828142239E+003     0.250323275889E-005     0.142684267257E-005     0.725937500079E-008     0.386941791927E-006
     0.106828142239E+003     0.255088954863E-005     0.145400704272E-005     0.739757969102E-008     0.401736951309E-006
     0.108828142239E+003     0.259854253515E-005     0.148116924503E-005     0.753577335193E-008     0.416808498013E-006
     0.110828142239E+003     0.264619171875E-005     0.150832927969E-005     0.767395598438E-008     0.432156409982E-006
     0.112828142239E+003     0.269383709974E-005     0.153548714685E-005     0.781212758925E-008     0.447780665160E-006
     0.114828142239E+003     0.274147867842E-005     0.156264284670E-005     0.795028816743E-008     0.463681241495E-006
     0.116828142239E+003     0.278911645510E-005     0.158979637941E-005     0.808843771980E-008     0.479858116935E-006
     0.118828142239E+003     0.283675043008E-005     0.161694774515E-005     0.822657624723E-008     0.496311269429E-006
     0.120828142239E+003     0.288438060366E-005     0.164409694409E-005     0.836470375061E-008     0.513040676931E-006
     0.122828142239E+003     0.293200697614E-005     0.167124397640E-005     0.850282023081E-008     0.530046317392E-006
     0.124828142239E+003     0.297962954783E-005     0.169838884227E-005     0.864092568872E-008     0.547328168770E-006
     0.126828142239E+003     0.302724831904E-005     0.172553154185E-005     0.877902012522E-008     0.564886209020E-006
     0.128828142239E+003     0.307486329006E-005     0.175267207533E-005     0.891710354117E-008     0.582720416102E-006
     0.130828142239E+003     0.312247446120E-005     0.177981044288E-005     0.905517593747E-008     0.600830767977E-006
     0.132828142239E+003     0.317008183276E-005     0.180694664467E-005     0.919323731500E-008     0.619217242607E-006
     0.134828142239E+003     0.321768540504E-005     0.183408068087E-005     0.933128767462E-008     0.637879817957E-006
     0.136828142239E+003     0.326528517836E-005     0.186121255166E-005     0.946932701723E-008     0.656818471991E-006
     0.138828142239E+003     0.331288115300E-005     0.188834225721E-005     0.960735534370E-008     0.676033182678E-006
     0.140828142239E+003     0.336047332928E-005     0.191546979769E-005     0.974537265491E-008     0.695523927988E-006
     0.142828142239E+003     0.340806170750E-005     0.194259517327E-005     0.988337895174E-008     0.715290685892E-006
     0.144828142239E+003     0.345564628795E-005     0.196971838413E-005     0.100213742351E-007     0.735333434362E-006
     0.146828142239E+003     0.350322707095E-005     0.199683943044E-005     0.101593585058E-007     0.755652151373E-006
     0.148828142239E+003     0.355080405680E-005     0.202395831238E-005     0.102973317647E-007     0.776246814903E-006
     0.150828142239E+003     0.359837724580E-005     0.205107503011E-005     0.104352940128E-007     0.797117402928E-006
     0.152828142239E+003     0.364594663825E-005     0.207818958380E-005     0.105732452509E-007     0.818263893430E-006
     0.154828142239E+003     0.369351223446E-005     0.210530197364E-005     0.107111854799E-007     0.839686264390E-006
     0.156828142239E+003     0.374107403472E-005     0.213241219979E-005     0.108491147007E-007     0.861384493792E-006
     0.158828142239E+003     0.378863203935E-005     0.215952026243E-005     0.109870329141E-007     0.883358559620E-006
     0.160828142239E+003     0.383618624864E-005     0.218662616172E-005     0.111249401211E-007     0.905608439862E-006
     0.162828142239E+003     0.388373666290E-005     0.221372989785E-005     0.112628363224E-007     0.928134112507E-006
     0.164828142239E+003     0.393128328243E-005     0.224083147098E-005     0.114007215190E-007     0.950935555545E-006
     0.166828142239E+003     0.397882610753E-005     0.226793088129E-005     0.115385957118E-007     0.974012746969E-006
     0.168828142239E+003     0.402636513851E-005     0.229502812895E-005     0.116764589017E-007     0.997365664772E-006
     0.170828142239E+003     0.407390037567E-005     0.232212321413E-005     0.118143110894E-007     0.102099428695E-005
     0.172828142239E+003     0.412143181931E-005     0.234921613701E-005     0.119521522760E-007     0.104489859150E-005
     0.174828142239E+003     0.416895946973E-005     0.237630689775E-005     0.120899824622E-007     0.106907855643E-005
     0.176828142239E+003     0.421648332724E-005     0.240339549653E-005     0.122278016490E-007     0.109353415973E-005
     0.178828142239E+003     0.426400339214E-005     0.243048193352E-005     0.123656098372E-007     0.111826537940E-005
     0.180828142239E+003     0.431151966474E-005     0.245756620890E-005     0.125034070277E-007     0.114327219346E-005
     0.182828142239E+003     0.435903214533E-005     0.248464832284E-005     0.126411932214E-007     0.116855457990E-005
     0.184828142239E+003     0.440654083421E-005     0.251172827550E-005     0.127789684192E-007     0.119411251674E-005
     0.186828142239E+003     0.445404573170E-005     0.253880606707E-005     0.129167326219E-007     0.121994598198E-005
     0.188828142239E+003     0.450154683809E-005     0.256588169771E-005     0.130544858305E-007     0.124605495364E-005
     0.190828142239E+003     0.454904415368E-005     0.259295516760E-005     0.131922280457E-007     0.127243940973E-005
     0.192828142239E+003     0.459653767878E-005     0.262002647691E-005     0.133299592685E-007     0.129909932827E-005
     0.194828142239E+003     0.464402741370E-005     0.264709562581E-005     0.134676794997E-007     0.132603468727E-005
     0.196828142239E+003     0.469151335872E-005     0.267416261447E-005     0.136053887403E-007     0.135324546475E-005
     0.198828142239E+003     0.473899551416E-005     0.270122744307E-005     0.137430869911E-007     0.138073163873E-005
     0.200828142239E+003     0.478647388032E-005     0.272829011178E-005     0.138807742529E-007     0.140849318724E-005
     0.202828142239E+003     0.483394845750E-005     0.275535062078E-005     0.140184505268E-007     0.143653008829E-005
     0.204828142239E+003     0.488141924600E-005     0.278240897022E-005     0.141561158134E-007     0.146484231992E-005
     0.206828142239E+003     0.492888624613E-005     0.280946516029E-005     0.142937701138E-007     0.149342986015E-005
     0.208828142239E+003     0.497634945818E-005     0.283651919116E-005     0.144314134287E-007     0.152229268700E-005
     0.210828142239E+003     0.502380888247E-005     0.286357106301E-005     0.145690457592E-007     0.155143077852E-005
     0.212828142239E+003     0.507126451928E-005     0.289062077599E-005     0.147066671059E-007     0.158084411273E-005
     0.214828142239E+003     0.511871636893E-005     0.291766833029E-005     0.148442774699E-007     0.161053266767E-005
     0.216828142239E+003     0.516616443171E-005     0.294471372608E-005     0.149818768520E-007     0.164049642138E-005
     0.218828142239E+003     0.521360870794E-005     0.297175696352E-005     0.151194652530E-007     0.167073535188E-005
     0.220828142239E+003     0.526104919790E-005     0.299879804280E-005     0.152570426739E-007     0.170124943723E-005
     0.222828142239E+003     0.530848590191E-005     0.302583696409E-005     0.153946091155E-007     0.173203865546E-005
     0.224828142239E+003     0.535591882026E-005     0.305287372755E-005     0.155321645788E-007     0.176310298462E-005
     0.226828142239E+003     0.540334795326E-005     0.307990833336E-005     0.156697090645E-007     0.179444240275E-005
     0.228828142239E+003     0.545077330121E-005     0.310694078169E-005     0.158072425735E-007     0.182605688790E-005
     0.230828142239E+003     0.549819486441E-005     0.313397107271E-005     0.159447651068E-007     0.185794641811E-005
     0.232828142239E+003     0.554561264316E-005     0.316099920660E-005     0.160822766652E-007     0.189011097144E-005
     0.234828142239E+003     0.559302663777E-005     0.318802518353E-005     0.162197772495E-007     0.192255052594E-005
     0.236828142239E+003     0.564043684854E-005     0.321504900367E-005     0.163572668608E-007     0.195526505966E-005
     0.238828142239E+003     0.568784327576E-005     0.324207066718E-005     0.164947454997E-007     0.198825455066E-005
     0.240828142239E+003     0.573524591975E-005     0.326909017426E-005     0.166322131673E-007     0.202151897699E-005
     0.242828142239E+003     0.578264478080E-005     0.329610752506E-005     0.167696698643E-007     0.205505831672E-005
     0.244828142239E+003     0.583003985921E-005     0.332312271975E-005     0.169071155917E-007     0.208887254791E-005
