 #              _____________________  _______________________             #
 #              ___  __ \__  __ \_  / / /_  /___  ____/_  ___/             #
 #              __  / / /_  /_/ /  / / /_  __/_  __/  _____ \              #
 #              _  /_/ /_  _, _// /_/ / / /_ _  /___  ____/ /              #
 #              /_____/ /_/ |_| \____/  \__/ /_____/  /____/               #
 #                                                                         #
  
 #        time                      c  [M/L^3]                   concetration [M/L^3]       concentration flux [M.L^{-2}.T^{-1}]   in    x              directions   cumulative flux
 #-----------------------------------------------------------------------------------------------

     0.000000000000E+000     0.000000000000E+000     0.000000000000E+000     0.000000000000E+000     0.000000000000E+000
     0.100000000000E+000     0.281592675886E-008     0.156256339034E-008    -0.816618760095E-011     0.816618760095E-012
     0.206000000000E+000     0.580075093114E-008     0.321884829319E-008    -0.168221777007E-010     0.259976959637E-011
     0.318360000000E+000     0.896459917054E-008     0.497447400893E-008    -0.259973375949E-010     0.552083044854E-011
     0.437461600000E+000     0.123182048416E-007     0.683539650299E-008    -0.357227940405E-010     0.977547237523E-011
     0.563709296000E+000     0.158729443120E-007     0.880792854464E-008    -0.460315385048E-010     0.155868480548E-010
     0.697531853760E+000     0.196408754099E-007     0.108987610467E-007    -0.569585386885E-010     0.232091853884E-010
     0.839383764986E+000     0.236347781730E-007     0.131149856778E-007    -0.685408567017E-010     0.329318369085E-010
     0.989746790885E+000     0.278681980250E-007     0.154641188205E-007    -0.808177742724E-010     0.450838419946E-010
     0.114913159834E+001     0.323554915248E-007     0.179541269581E-007    -0.938309254217E-010     0.600390659761E-010
     0.131807949424E+001     0.371118748371E-007     0.205934535709E-007    -0.107624437027E-009     0.782219881593E-010
     0.149716426389E+001     0.421534750878E-007     0.233910476332E-007    -0.122245077754E-009     0.100114219750E-009
     0.168699411973E+001     0.474973847751E-007     0.263563938064E-007    -0.137742415848E-009     0.126261842693E-009
     0.188821376691E+001     0.531617194114E-007     0.294995444248E-007    -0.154168986293E-009     0.157283671721E-009
     0.210150659292E+001     0.591656785929E-007     0.328311533826E-007    -0.171580467919E-009     0.193880554613E-009
     0.232759698850E+001     0.655296106912E-007     0.363625120317E-007    -0.190035871004E-009     0.236845839861E-009
     0.256725280781E+001     0.722750813858E-007     0.401055872112E-007    -0.209597736018E-009     0.287077157012E-009
     0.282128797628E+001     0.794249462581E-007     0.440730615285E-007    -0.230332344148E-009     0.345589672862E-009
     0.309056525485E+001     0.870034276866E-007     0.482783760301E-007    -0.252309940290E-009     0.413531006941E-009
     0.337599917015E+001     0.950361962956E-007     0.527357753968E-007    -0.275604969256E-009     0.492198012389E-009
     0.367855912035E+001     0.103550457219E-006     0.574603558120E-007    -0.300296325936E-009     0.583055653812E-009
     0.399927266758E+001     0.112575041467E-006     0.624681156600E-007    -0.326467620253E-009     0.687758242357E-009
     0.433922902763E+001     0.122140502678E-006     0.677760092168E-007    -0.354207457764E-009     0.808173320402E-009
     0.469958276929E+001     0.132279219590E-006     0.734020035091E-007    -0.383609736811E-009     0.946408524399E-009
     0.508155773545E+001     0.143025504545E-006     0.793651385228E-007    -0.414773963179E-009     0.110484179495E-008
     0.548645119957E+001     0.154415718371E-006     0.856855909558E-007    -0.447805583276E-009     0.128615534881E-008
     0.591563827155E+001     0.166488392038E-006     0.923847417185E-007    -0.482816336908E-009     0.149337387875E-008
     0.637057656784E+001     0.179284355434E-006     0.994852473989E-007    -0.519924630757E-009     0.172990750447E-008
     0.685281116191E+001     0.192846873713E-006     0.107011115917E-006    -0.559255933765E-009     0.199960006267E-008
     0.736397983162E+001     0.207221791613E-006     0.114987786610E-006    -0.600943195676E-009     0.230678339658E-008
     0.790581862152E+001     0.222457686221E-006     0.123442215000E-006    -0.645127290040E-009     0.265633838674E-008
     0.848016773881E+001     0.238606028650E-006     0.132402962510E-006    -0.691957483084E-009     0.305376355636E-008
     0.908897780314E+001     0.255721355139E-006     0.141900291409E-006    -0.741591929902E-009     0.350525218691E-008
     0.973431647133E+001     0.273861448110E-006     0.151966265279E-006    -0.794198199517E-009     0.401777899526E-008
     0.104183754596E+002     0.293087527731E-006     0.162634855313E-006    -0.849953830419E-009     0.459919755258E-008
     0.111434779872E+002     0.313464454585E-006     0.173942052778E-006    -0.909046918296E-009     0.525834977072E-008
     0.119120866664E+002     0.335060944048E-006     0.185925987974E-006    -0.971676737737E-009     0.600518894476E-008
     0.127268118664E+002     0.357949793038E-006     0.198627056056E-006    -0.103805439981E-008     0.685091802324E-008
     0.135904205784E+002     0.382208119811E-006     0.212088050100E-006    -0.110840354745E-008     0.780814498321E-008
     0.145058458131E+002     0.407917617513E-006     0.226354301793E-006    -0.118296109079E-008     0.889105741739E-008
     0.154761965619E+002     0.435164822240E-006     0.241473830191E-006    -0.126197798450E-008     0.101156186996E-007
     0.165047683556E+002     0.464041396403E-006     0.257497498947E-006    -0.134572004957E-008     0.114997883848E-007
     0.175950544569E+002     0.494644428187E-006     0.274479182490E-006    -0.143446884174E-008     0.130637698258E-007
     0.187507577243E+002     0.527076748002E-006     0.292475941620E-006    -0.152852256920E-008     0.148302883533E-007
     0.199758031878E+002     0.561447262791E-006     0.311548209017E-006    -0.162819706209E-008     0.168249037778E-007
     0.212743513791E+002     0.597871309144E-006     0.331759985187E-006    -0.173382679652E-008     0.190763614284E-007
     0.226508124618E+002     0.636471026190E-006     0.353179045375E-006    -0.184576597595E-008     0.216169864622E-007
     0.241098612095E+002     0.677375749285E-006     0.375877158030E-006    -0.196438967293E-008     0.244831267545E-007
     0.256564528821E+002     0.720722425541E-006     0.399930315378E-006    -0.209009503407E-008     0.277156503291E-007
     0.272958400550E+002     0.766656052307E-006     0.425418976737E-006    -0.222330255169E-008     0.313605040138E-007
     0.290335904583E+002     0.815330139713E-006     0.452428325187E-006    -0.236445740517E-008     0.354693408232E-007
     0.308756058858E+002     0.866907198472E-006     0.481048538247E-006    -0.251403087557E-008     0.401002244812E-007
     0.328281422390E+002     0.921559254136E-006     0.511375073239E-006    -0.267252183700E-008     0.453184205226E-007
     0.348281422390E+002     0.977519246116E-006     0.542427384708E-006    -0.283480581374E-008     0.509880321500E-007
     0.368281422390E+002     0.103345866081E-005     0.573468277800E-006    -0.299703011634E-008     0.569820923827E-007
     0.388281422390E+002     0.108937750577E-005     0.604497756709E-006    -0.315919476675E-008     0.633004819162E-007
     0.408281422390E+002     0.114527578857E-005     0.635515825630E-006    -0.332129978686E-008     0.699430814899E-007
     0.428281422390E+002     0.120115351676E-005     0.666522488755E-006    -0.348334519859E-008     0.769097718871E-007
     0.448281422390E+002     0.125701069788E-005     0.697517750274E-006    -0.364533102385E-008     0.842004339348E-007
     0.468281422390E+002     0.131284733949E-005     0.728501614377E-006    -0.380725728452E-008     0.918149485038E-007
     0.488281422390E+002     0.136866344913E-005     0.759474085251E-006    -0.396912400249E-008     0.997531965088E-007
     0.508281422390E+002     0.142445903436E-005     0.790435167084E-006    -0.413093119964E-008     0.108015058908E-006
     0.528281422390E+002     0.148023410270E-005     0.821384864058E-006    -0.429267889784E-008     0.116600416704E-006
     0.548281422390E+002     0.153598866171E-005     0.852323180358E-006    -0.445436711895E-008     0.125509150942E-006
     0.568281422390E+002     0.159172271890E-005     0.883250120165E-006    -0.461599588482E-008     0.134741142711E-006
     0.588281422390E+002     0.164743628183E-005     0.914165687659E-006    -0.477756521730E-008     0.144296273146E-006
     0.608281422390E+002     0.170312935801E-005     0.945069887019E-006    -0.493907513823E-008     0.154174423422E-006
     0.628281422390E+002     0.175880195498E-005     0.975962722421E-006    -0.510052566943E-008     0.164375474761E-006
     0.648281422390E+002     0.181445408025E-005     0.100684419804E-005    -0.526191683273E-008     0.174899308427E-006
     0.668281422390E+002     0.187008574136E-005     0.103771431805E-005    -0.542324864994E-008     0.185745805727E-006
     0.688281422390E+002     0.192569694582E-005     0.106857308663E-005    -0.558452114287E-008     0.196914848012E-006
     0.708281422390E+002     0.198128770114E-005     0.109942050794E-005    -0.574573433331E-008     0.208406316679E-006
     0.728281422390E+002     0.203685801484E-005     0.113025658615E-005    -0.590688824305E-008     0.220220093165E-006
     0.748281422390E+002     0.209240789444E-005     0.116108132544E-005    -0.606798289387E-008     0.232356058953E-006
     0.768281422390E+002     0.214793734743E-005     0.119189472997E-005    -0.622901830756E-008     0.244814095568E-006
     0.788281422390E+002     0.220344638133E-005     0.122269680389E-005    -0.638999450586E-008     0.257594084580E-006
     0.808281422390E+002     0.225893500364E-005     0.125348755139E-005    -0.655091151055E-008     0.270695907601E-006
     0.828281422390E+002     0.231440322185E-005     0.128426697661E-005    -0.671176934337E-008     0.284119446287E-006
     0.848281422390E+002     0.236985104347E-005     0.131503508372E-005    -0.687256802605E-008     0.297864582340E-006
     0.868281422390E+002     0.242527847598E-005     0.134579187688E-005    -0.703330758034E-008     0.311931197500E-006
     0.888281422390E+002     0.248068552689E-005     0.137653736024E-005    -0.719398802797E-008     0.326319173556E-006
     0.908281422390E+002     0.253607220367E-005     0.140727153796E-005    -0.735460939064E-008     0.341028392337E-006
     0.928281422390E+002     0.259143851382E-005     0.143799441419E-005    -0.751517169006E-008     0.356058735718E-006
     0.948281422390E+002     0.264678446481E-005     0.146870599309E-005    -0.767567494795E-008     0.371410085613E-006
     0.968281422390E+002     0.270211006413E-005     0.149940627881E-005    -0.783611918599E-008     0.387082323985E-006
     0.988281422390E+002     0.275741531926E-005     0.153009527549E-005    -0.799650442586E-008     0.403075332837E-006
     0.100828142239E+003     0.281270023768E-005     0.156077298729E-005    -0.815683068926E-008     0.419388994216E-006
     0.102828142239E+003     0.286796482684E-005     0.159143941834E-005    -0.831709799784E-008     0.436023190211E-006
     0.104828142239E+003     0.292320909423E-005     0.162209457281E-005    -0.847730637327E-008     0.452977802958E-006
     0.106828142239E+003     0.297843304731E-005     0.165273845482E-005    -0.863745583719E-008     0.470252714632E-006
     0.108828142239E+003     0.303363669354E-005     0.168337106852E-005    -0.879754641127E-008     0.487847807455E-006
     0.110828142239E+003     0.308882004039E-005     0.171399241805E-005    -0.895757811713E-008     0.505762963689E-006
     0.112828142239E+003     0.314398309532E-005     0.174460250756E-005    -0.911755097641E-008     0.523998065642E-006
     0.114828142239E+003     0.319912586577E-005     0.177520134117E-005    -0.927746501073E-008     0.542552995663E-006
     0.116828142239E+003     0.325424835921E-005     0.180578892302E-005    -0.943732024170E-008     0.561427636147E-006
     0.118828142239E+003     0.330935058308E-005     0.183636525725E-005    -0.959711669092E-008     0.580621869529E-006
     0.120828142239E+003     0.336443254483E-005     0.186693034799E-005    -0.975685438001E-008     0.600135578289E-006
     0.122828142239E+003     0.341949425191E-005     0.189748419937E-005    -0.991653333054E-008     0.619968644950E-006
     0.124828142239E+003     0.347453571176E-005     0.192802681553E-005    -0.100761535641E-007     0.640120952078E-006
     0.126828142239E+003     0.352955693182E-005     0.195855820058E-005    -0.102357151023E-007     0.660592382282E-006
     0.128828142239E+003     0.358455791952E-005     0.198907835866E-005    -0.103952179666E-007     0.681382818216E-006
     0.130828142239E+003     0.363953868230E-005     0.201958729389E-005    -0.105546621787E-007     0.702492142573E-006
     0.132828142239E+003     0.369449922759E-005     0.205008501039E-005    -0.107140477600E-007     0.723920238093E-006
     0.134828142239E+003     0.374943956282E-005     0.208057151229E-005    -0.108733747322E-007     0.745666987557E-006
     0.136828142239E+003     0.380435969542E-005     0.211104680371E-005    -0.110326431167E-007     0.767732273791E-006
     0.138828142239E+003     0.385925963280E-005     0.214151088876E-005    -0.111918529351E-007     0.790115979661E-006
     0.140828142239E+003     0.391413938240E-005     0.217196377157E-005    -0.113510042090E-007     0.812817988079E-006
     0.142828142239E+003     0.396899895162E-005     0.220240545625E-005    -0.115100969597E-007     0.835838181998E-006
     0.144828142239E+003     0.402383834788E-005     0.223283594691E-005    -0.116691312088E-007     0.859176444416E-006
     0.146828142239E+003     0.407865757859E-005     0.226325524768E-005    -0.118281069779E-007     0.882832658372E-006
     0.148828142239E+003     0.413345665117E-005     0.229366336265E-005    -0.119870242884E-007     0.906806706949E-006
     0.150828142239E+003     0.418823557302E-005     0.232406029594E-005    -0.121458831617E-007     0.931098473272E-006
     0.152828142239E+003     0.424299435154E-005     0.235444605166E-005    -0.123046836195E-007     0.955707840511E-006
     0.154828142239E+003     0.429773299414E-005     0.238482063391E-005    -0.124634256830E-007     0.980634691877E-006
     0.156828142239E+003     0.435245150821E-005     0.241518404681E-005    -0.126221093738E-007     0.100587891062E-005
     0.158828142239E+003     0.440714990115E-005     0.244553629445E-005    -0.127807347133E-007     0.103144038005E-005
     0.160828142239E+003     0.446182818035E-005     0.247587738093E-005    -0.129393017230E-007     0.105731898350E-005
     0.162828142239E+003     0.451648635321E-005     0.250620731037E-005    -0.130978104243E-007     0.108351460435E-005
     0.164828142239E+003     0.457112442711E-005     0.253652608685E-005    -0.132562608386E-007     0.111002712602E-005
     0.166828142239E+003     0.462574240944E-005     0.256683371448E-005    -0.134146529874E-007     0.113685643200E-005
     0.168828142239E+003     0.468034030758E-005     0.259713019736E-005    -0.135729868920E-007     0.116400240578E-005
     0.170828142239E+003     0.473491812891E-005     0.262741553957E-005    -0.137312625738E-007     0.119146493093E-005
     0.172828142239E+003     0.478947588080E-005     0.265768974521E-005    -0.138894800543E-007     0.121924389104E-005
     0.174828142239E+003     0.484401357063E-005     0.268795281837E-005    -0.140476393548E-007     0.124733916975E-005
     0.176828142239E+003     0.489853120577E-005     0.271820476315E-005    -0.142057404967E-007     0.127575065074E-005
     0.178828142239E+003     0.495302879360E-005     0.274844558363E-005    -0.143637835014E-007     0.130447821774E-005
     0.180828142239E+003     0.500750634147E-005     0.277867528390E-005    -0.145217683903E-007     0.133352175452E-005
     0.182828142239E+003     0.506196385675E-005     0.280889386804E-005    -0.146796951846E-007     0.136288114489E-005
     0.184828142239E+003     0.511640134681E-005     0.283910134015E-005    -0.148375639057E-007     0.139255627271E-005
     0.186828142239E+003     0.517081881899E-005     0.286929770430E-005    -0.149953745751E-007     0.142254702186E-005
     0.188828142239E+003     0.522521628066E-005     0.289948296457E-005    -0.151531272139E-007     0.145285327628E-005
     0.190828142239E+003     0.527959373916E-005     0.292965712505E-005    -0.153108218436E-007     0.148347491997E-005
     0.192828142239E+003     0.533395120186E-005     0.295982018981E-005    -0.154684584854E-007     0.151441183694E-005
     0.194828142239E+003     0.538828867608E-005     0.298997216294E-005    -0.156260371606E-007     0.154566391126E-005
     0.196828142239E+003     0.544260616919E-005     0.302011304849E-005    -0.157835578907E-007     0.157723102704E-005
     0.198828142239E+003     0.549690368852E-005     0.305024285056E-005    -0.159410206967E-007     0.160911306844E-005
     0.200828142239E+003     0.555118124140E-005     0.308036157322E-005    -0.160984256001E-007     0.164130991964E-005
     0.202828142239E+003     0.560543883519E-005     0.311046922052E-005    -0.162557726220E-007     0.167382146488E-005
     0.204828142239E+003     0.565967647720E-005     0.314056579655E-005    -0.164130617839E-007     0.170664758845E-005
     0.206828142239E+003     0.571389417478E-005     0.317065130537E-005    -0.165702931069E-007     0.173978817466E-005
     0.208828142239E+003     0.576809193524E-005     0.320072575105E-005    -0.167274666122E-007     0.177324310789E-005
     0.210828142239E+003     0.582226976592E-005     0.323078913765E-005    -0.168845823212E-007     0.180701227253E-005
     0.212828142239E+003     0.587642767414E-005     0.326084146924E-005    -0.170416402550E-007     0.184109555304E-005
     0.214828142239E+003     0.593056566722E-005     0.329088274987E-005    -0.171986404350E-007     0.187549283391E-005
     0.216828142239E+003     0.598468375248E-005     0.332091298362E-005    -0.173555828822E-007     0.191020399967E-005
     0.218828142239E+003     0.603878193723E-005     0.335093217453E-005    -0.175124676180E-007     0.194522893491E-005
     0.220828142239E+003     0.609286022878E-005     0.338094032667E-005    -0.176692946635E-007     0.198056752424E-005
     0.222828142239E+003     0.614691863445E-005     0.341093744409E-005    -0.178260640399E-007     0.201621965232E-005
     0.224828142239E+003     0.620095716153E-005     0.344092353085E-005    -0.179827757685E-007     0.205218520385E-005
     0.226828142239E+003     0.625497581734E-005     0.347089859100E-005    -0.181394298703E-007     0.208846406359E-005
     0.228828142239E+003     0.630897460918E-005     0.350086262858E-005    -0.182960263667E-007     0.212505611633E-005
     0.230828142239E+003     0.636295354435E-005     0.353081564766E-005    -0.184525652787E-007     0.216196124689E-005
     0.232828142239E+003     0.641691263013E-005     0.356075765228E-005    -0.186090466274E-007     0.219917934014E-005
     0.234828142239E+003     0.647085187383E-005     0.359068864649E-005    -0.187654704342E-007     0.223671028101E-005
     0.236828142239E+003     0.652477128273E-005     0.362060863433E-005    -0.189218367200E-007     0.227455395445E-005
     0.238828142239E+003     0.657867086413E-005     0.365051761985E-005    -0.190781455061E-007     0.231271024546E-005
     0.240828142239E+003     0.663255062531E-005     0.368041560709E-005    -0.192343968135E-007     0.235117903909E-005
     0.242828142239E+003     0.668641057355E-005     0.371030260009E-005    -0.193905906634E-007     0.238996022041E-005
     0.244828142239E+003     0.674025071614E-005     0.374017860289E-005    -0.195467270769E-007     0.242905367457E-005
