 #              _____________________  _______________________             #
 #              ___  __ \__  __ \_  / / /_  /___  ____/_  ___/             #
 #              __  / / /_  /_/ /  / / /_  __/_  __/  _____ \              #
 #              _  /_/ /_  _, _// /_/ / / /_ _  /___  ____/ /              #
 #              /_____/ /_/ |_| \____/  \__/ /_____/  /____/               #
 #                                                                         #
  
 #        time                      c  [M/L^3]                   concetration [M/L^3]       concentration flux [M.L^{-2}.T^{-1}]   in    x              directions   cumulative flux
 #-----------------------------------------------------------------------------------------------

     0.000000000000E+000     0.000000000000E+000     0.000000000000E+000     0.000000000000E+000     0.000000000000E+000
     0.100000000000E+000     0.122026983715E-006     0.695553807173E-007    -0.353878252772E-009     0.353878252772E-010
     0.206000000000E+000     0.251347686514E-006     0.143268181313E-006    -0.728908290890E-009     0.112652104112E-009
     0.318360000000E+000     0.388396290277E-006     0.221385885458E-006    -0.112634924180E-008     0.239208704921E-009
     0.437461600000E+000     0.533632603825E-006     0.304170584180E-006    -0.154753455109E-008     0.423522546011E-009
     0.563709296000E+000     0.687543548389E-006     0.391899822582E-006    -0.199387629033E-008     0.675244833774E-009
     0.697531853760E+000     0.850644725823E-006     0.484867493719E-006    -0.246686970488E-008     0.100536764734E-008
     0.839383764986E+000     0.102348207372E-005     0.583384782022E-006    -0.296809801380E-008     0.142639802330E-008
     0.989746790885E+000     0.120663361181E-005     0.687781158731E-006    -0.349923747425E-008     0.195255395827E-008
     0.114913159834E+001     0.140071128405E-005     0.798405431909E-006    -0.406206272375E-008     0.259998504336E-008
     0.131807949424E+001     0.160636290119E-005     0.915626853677E-006    -0.465845241344E-008     0.338702077676E-008
     0.149716426389E+001     0.182427418844E-005     0.103983628741E-005    -0.529039514647E-008     0.433444997295E-008
     0.168699411973E+001     0.205517094330E-005     0.117144743768E-005    -0.595999573558E-008     0.546583510420E-008
     0.188821376691E+001     0.229982130857E-005     0.131089814589E-005    -0.666948179486E-008     0.680786587786E-008
     0.210150659292E+001     0.255903816563E-005     0.145865175441E-005    -0.742121068033E-008     0.839075687632E-008
     0.232759698850E+001     0.283368165342E-005     0.161519854245E-005    -0.821767679491E-008     0.102486946736E-007
     0.256725280781E+001     0.312466181835E-005     0.178105723646E-005    -0.906151927321E-008     0.124203404992E-007
     0.282128797628E+001     0.343294140066E-005     0.195677659838E-005    -0.995553006191E-008     0.149493952557E-007
     0.309056525485E+001     0.375953876258E-005     0.214293709467E-005    -0.109026624115E-007     0.178852345191E-007
     0.337599917015E+001     0.410553096383E-005     0.234015264938E-005    -0.119060397951E-007     0.212836220734E-007
     0.367855912035E+001     0.447205698986E-005     0.254907248422E-005    -0.129689652706E-007     0.252075115599E-007
     0.399927266758E+001     0.486032113819E-005     0.277038304877E-005    -0.140949313007E-007     0.297279469752E-007
     0.433922902763E+001     0.527159656794E-005     0.300481004372E-005    -0.152876300470E-007     0.349250740399E-007
     0.469958276929E+001     0.570722901779E-005     0.325312054014E-005    -0.165509641516E-007     0.408892759000E-007
     0.508155773545E+001     0.616864069694E-005     0.351612519725E-005    -0.178890580211E-007     0.477224482322E-007
     0.548645119957E+001     0.665733435350E-005     0.379468058150E-005    -0.193062696252E-007     0.555394306201E-007
     0.591563827155E+001     0.717489752445E-005     0.408969158893E-005    -0.208072028209E-007     0.644696130747E-007
     0.637057656784E+001     0.772300697039E-005     0.440211397312E-005    -0.223967202141E-007     0.746587388115E-007
     0.685281116191E+001     0.830343329808E-005     0.473295697990E-005    -0.240799565644E-007     0.862709268906E-007
     0.736397983162E+001     0.891804577261E-005     0.508328609039E-005    -0.258623327406E-007     0.994909411133E-007
     0.790581862152E+001     0.956881732037E-005     0.545422587261E-005    -0.277495702291E-007     0.114526734666E-006
     0.848016773881E+001     0.102578297226E-004     0.584696294188E-005    -0.297477061956E-007     0.131612303461E-006
     0.908897780314E+001     0.109872789984E-004     0.626274902909E-005    -0.318631090954E-007     0.151010884959E-006
     0.973431647133E+001     0.117594809740E-004     0.670290415517E-005    -0.341024948245E-007     0.173018543551E-006
     0.104183754596E+002     0.125768770336E-004     0.716881990916E-005    -0.364729433975E-007     0.197968188311E-006
     0.111434779872E+002     0.134420400456E-004     0.766196282601E-005    -0.389819161323E-007     0.226234074229E-006
     0.119120866664E+002     0.143576804540E-004     0.818387785880E-005    -0.416372733167E-007     0.258236843879E-006
     0.127268118664E+002     0.153266525243E-004     0.873619193884E-005    -0.444472923204E-007     0.294449173004E-006
     0.135904205784E+002     0.163519607279E-004     0.932061761492E-005    -0.474206861110E-007     0.335402090658E-006
     0.145058458131E+002     0.174367662480E-004     0.993895676137E-005    -0.505666221192E-007     0.381692052579E-006
     0.154761965619E+002     0.185843935824E-004     0.105931043420E-004    -0.538947413891E-007     0.433988855242E-006
     0.165047683556E+002     0.197983372188E-004     0.112850522147E-004    -0.574151779345E-007     0.493044487796E-006
     0.175950544569E+002     0.210822683481E-004     0.120168929584E-004    -0.611385782096E-007     0.559703029874E-006
     0.187507577243E+002     0.224400415806E-004     0.127908237010E-004    -0.650761205838E-007     0.634911715063E-006
     0.199758031878E+002     0.238757016183E-004     0.136091499224E-004    -0.692395346930E-007     0.719733292931E-006
     0.212743513791E+002     0.253934898341E-004     0.144742892055E-004    -0.736411205190E-007     0.815359836784E-006
     0.226508124618E+002     0.269978506987E-004     0.153887748983E-004    -0.782937670263E-007     0.923128160117E-006
     0.241098612095E+002     0.286934379856E-004     0.163552596518E-004    -0.832109701583E-007     0.104453702192E-005
     0.256564528821E+002     0.304851206787E-004     0.173765187869E-004    -0.884068499683E-007     0.118126631988E-005
     0.272958400550E+002     0.323779884931E-004     0.184554534411E-004    -0.938961666300E-007     0.133519849104E-005
     0.290335904583E+002     0.343773569089E-004     0.195950934381E-004    -0.996943350357E-007     0.150844236196E-005
     0.308756058858E+002     0.364887716056E-004     0.207985998152E-004    -0.105817437656E-006     0.170335971462E-005
     0.328281422390E+002     0.387180121702E-004     0.220692669370E-004    -0.112282235293E-006     0.192259486084E-005
     0.348281422390E+002     0.409921854363E-004     0.233655456987E-004    -0.118877337765E-006     0.216034953637E-005
     0.368281422390E+002     0.432571389636E-004     0.246565692093E-004    -0.125445702995E-006     0.241124094236E-005
     0.388281422390E+002     0.455129101301E-004     0.259423587741E-004    -0.131987439377E-006     0.267521582111E-005
     0.408281422390E+002     0.477595361618E-004     0.272229356122E-004    -0.138502654869E-006     0.295222113085E-005
     0.428281422390E+002     0.499970541342E-004     0.284983208565E-004    -0.144991456989E-006     0.324220404483E-005
     0.448281422390E+002     0.522255009724E-004     0.297685355542E-004    -0.151453952820E-006     0.354511195047E-005
     0.468281422390E+002     0.544449134515E-004     0.310336006674E-004    -0.157890249009E-006     0.386089244849E-005
     0.488281422390E+002     0.566553281979E-004     0.322935370728E-004    -0.164300451774E-006     0.418949335204E-005
     0.508281422390E+002     0.588567816894E-004     0.335483655630E-004    -0.170684666899E-006     0.453086268584E-005
     0.528281422390E+002     0.610493102558E-004     0.347981068458E-004    -0.177042999742E-006     0.488494868532E-005
     0.548281422390E+002     0.632329500797E-004     0.360427815454E-004    -0.183375555231E-006     0.525169979578E-005
     0.568281422390E+002     0.654077371970E-004     0.372824102023E-004    -0.189682437871E-006     0.563106467153E-005
     0.588281422390E+002     0.675737074975E-004     0.385170132736E-004    -0.195963751743E-006     0.602299217501E-005
     0.608281422390E+002     0.697308967255E-004     0.397466111335E-004    -0.202219600504E-006     0.642743137602E-005
     0.628281422390E+002     0.718793404804E-004     0.409712240738E-004    -0.208450087394E-006     0.684433155081E-005
     0.648281422390E+002     0.740190742173E-004     0.421908723039E-004    -0.214655315231E-006     0.727364218127E-005
     0.668281422390E+002     0.761501332475E-004     0.434055759511E-004    -0.220835386419E-006     0.771531295411E-005
     0.688281422390E+002     0.782725527392E-004     0.446153550613E-004    -0.226990402946E-006     0.816929376000E-005
     0.708281422390E+002     0.803863677179E-004     0.458202295992E-004    -0.233120466386E-006     0.863553469277E-005
     0.728281422390E+002     0.824916130673E-004     0.470202194484E-004    -0.239225677901E-006     0.911398604858E-005
     0.748281422390E+002     0.845883235295E-004     0.482153444118E-004    -0.245306138244E-006     0.960459832506E-005
     0.768281422390E+002     0.866765337059E-004     0.494056242124E-004    -0.251361947758E-006     0.101073222206E-004
     0.788281422390E+002     0.887562780574E-004     0.505910784927E-004    -0.257393206382E-006     0.106221086333E-004
     0.808281422390E+002     0.908275909053E-004     0.517717268160E-004    -0.263400013648E-006     0.111489086606E-004
     0.828281422390E+002     0.928905064319E-004     0.529475886662E-004    -0.269382468683E-006     0.116876735980E-004
     0.848281422390E+002     0.949450586805E-004     0.541186834479E-004    -0.275340670215E-006     0.122383549384E-004
     0.868281422390E+002     0.969912815569E-004     0.552850304874E-004    -0.281274716571E-006     0.128009043716E-004
     0.888281422390E+002     0.990292088289E-004     0.564466490325E-004    -0.287184705680E-006     0.133752737829E-004
     0.908281422390E+002     0.101058874128E-003     0.576035582528E-004    -0.293070735071E-006     0.139614152531E-004
     0.928281422390E+002     0.103080310948E-003     0.587557772403E-004    -0.298932901882E-006     0.145592810568E-004
     0.948281422390E+002     0.105093552648E-003     0.599033250096E-004    -0.304771302856E-006     0.151688236626E-004
     0.968281422390E+002     0.107098632453E-003     0.610462204981E-004    -0.310586034342E-006     0.157899957312E-004
     0.988281422390E+002     0.109095583450E-003     0.621844825665E-004    -0.316377192301E-006     0.164227501158E-004
     0.100828142239E+003     0.111084438594E-003     0.633181299987E-004    -0.322144872304E-006     0.170670398604E-004
     0.102828142239E+003     0.113065230706E-003     0.644471815027E-004    -0.327889169536E-006     0.177228181995E-004
     0.104828142239E+003     0.115037992474E-003     0.655716557104E-004    -0.333610178796E-006     0.183900385571E-004
     0.106828142239E+003     0.117002756453E-003     0.666915711781E-004    -0.339307994498E-006     0.190686545461E-004
     0.108828142239E+003     0.118959555065E-003     0.678069463869E-004    -0.344982710675E-006     0.197586199675E-004
     0.110828142239E+003     0.120908420601E-003     0.689177997426E-004    -0.350634420979E-006     0.204598888094E-004
     0.112828142239E+003     0.122849385222E-003     0.700241495764E-004    -0.356263218682E-006     0.211724152468E-004
     0.114828142239E+003     0.124782480956E-003     0.711260141450E-004    -0.361869196681E-006     0.218961536401E-004
     0.116828142239E+003     0.126707739703E-003     0.722234116308E-004    -0.367452447494E-006     0.226310585351E-004
     0.118828142239E+003     0.128625193232E-003     0.733163601424E-004    -0.373013063266E-006     0.233770846617E-004
     0.120828142239E+003     0.130534873184E-003     0.744048777146E-004    -0.378551135770E-006     0.241341869332E-004
     0.122828142239E+003     0.132436811068E-003     0.754889823088E-004    -0.384066756406E-006     0.249023204460E-004
     0.124828142239E+003     0.134331038269E-003     0.765686918133E-004    -0.389560016206E-006     0.256814404784E-004
     0.126828142239E+003     0.136217586041E-003     0.776440240433E-004    -0.395031005834E-006     0.264715024901E-004
     0.128828142239E+003     0.138096485512E-003     0.787149967416E-004    -0.400479815585E-006     0.272724621213E-004
     0.130828142239E+003     0.139967767681E-003     0.797816275784E-004    -0.405906535393E-006     0.280842751921E-004
     0.132828142239E+003     0.141831463424E-003     0.808439341516E-004    -0.411311254824E-006     0.289068977017E-004
     0.134828142239E+003     0.143687603486E-003     0.819019339872E-004    -0.416694063086E-006     0.297402858279E-004
     0.136828142239E+003     0.145536218491E-003     0.829556445396E-004    -0.422055049023E-006     0.305843959259E-004
     0.138828142239E+003     0.147377338932E-003     0.840050831913E-004    -0.427394301124E-006     0.314391845282E-004
     0.140828142239E+003     0.149210995182E-003     0.850502672537E-004    -0.432711907517E-006     0.323046083432E-004
     0.142828142239E+003     0.151037217486E-003     0.860912139669E-004    -0.438007955974E-006     0.331806242551E-004
     0.144828142239E+003     0.152856035965E-003     0.871279404998E-004    -0.443282533916E-006     0.340671893230E-004
     0.146828142239E+003     0.154667480616E-003     0.881604639508E-004    -0.448535728405E-006     0.349642607798E-004
     0.148828142239E+003     0.156471581311E-003     0.891888013475E-004    -0.453767626156E-006     0.358717960321E-004
     0.150828142239E+003     0.158268367802E-003     0.902129696469E-004    -0.458978313532E-006     0.367897526592E-004
     0.152828142239E+003     0.160057869711E-003     0.912329857355E-004    -0.464167876544E-006     0.377180884123E-004
     0.154828142239E+003     0.161840116543E-003     0.922488664298E-004    -0.469336400858E-006     0.386567612140E-004
     0.156828142239E+003     0.163615137677E-003     0.932606284759E-004    -0.474483971792E-006     0.396057291576E-004
     0.158828142239E+003     0.165382962368E-003     0.942682885500E-004    -0.479610674319E-006     0.405649505062E-004
     0.160828142239E+003     0.167143619751E-003     0.952718632583E-004    -0.484716593067E-006     0.415343836923E-004
     0.162828142239E+003     0.168897138837E-003     0.962713691370E-004    -0.489801812320E-006     0.425139873170E-004
     0.164828142239E+003     0.170643548513E-003     0.972668226526E-004    -0.494866416021E-006     0.435037201490E-004
     0.166828142239E+003     0.172382877547E-003     0.982582402017E-004    -0.499910487771E-006     0.445035411246E-004
     0.168828142239E+003     0.174115154581E-003     0.992456381114E-004    -0.504934110831E-006     0.455134093462E-004
     0.170828142239E+003     0.175840408138E-003     0.100229032639E-003    -0.509937368121E-006     0.465332840825E-004
     0.172828142239E+003     0.177558666617E-003     0.101208439971E-003    -0.514920342225E-006     0.475631247669E-004
     0.174828142239E+003     0.179269958293E-003     0.102183876227E-003    -0.519883115388E-006     0.486028909977E-004
     0.176828142239E+003     0.180974311322E-003     0.103155357454E-003    -0.524825769516E-006     0.496525425367E-004
     0.178828142239E+003     0.182671753736E-003     0.104122899630E-003    -0.529748386182E-006     0.507120393091E-004
     0.180828142239E+003     0.184362313445E-003     0.105086518664E-003    -0.534651046622E-006     0.517813414023E-004
     0.182828142239E+003     0.186046018235E-003     0.106046230394E-003    -0.539533831735E-006     0.528604090658E-004
     0.184828142239E+003     0.187722895770E-003     0.107002050589E-003    -0.544396822088E-006     0.539492027100E-004
     0.186828142239E+003     0.189392973593E-003     0.107953994948E-003    -0.549240097911E-006     0.550476829058E-004
     0.188828142239E+003     0.191056279120E-003     0.108902079098E-003    -0.554063739101E-006     0.561558103840E-004
     0.190828142239E+003     0.192712839647E-003     0.109846318599E-003    -0.558867825222E-006     0.572735460344E-004
     0.192828142239E+003     0.194362682345E-003     0.110786728937E-003    -0.563652435503E-006     0.584008509054E-004
     0.194828142239E+003     0.196005834262E-003     0.111723325529E-003    -0.568417648839E-006     0.595376862031E-004
     0.196828142239E+003     0.197642322321E-003     0.112656123723E-003    -0.573163543794E-006     0.606840132907E-004
     0.198828142239E+003     0.199272173320E-003     0.113585138792E-003    -0.577890198595E-006     0.618397936879E-004
     0.200828142239E+003     0.200895413933E-003     0.114510385942E-003    -0.582597691136E-006     0.630049890702E-004
     0.202828142239E+003     0.202512070709E-003     0.115431880304E-003    -0.587286098979E-006     0.641795612681E-004
     0.204828142239E+003     0.204122170071E-003     0.116349636940E-003    -0.591955499349E-006     0.653634722668E-004
     0.206828142239E+003     0.205725738316E-003     0.117263670840E-003    -0.596605969136E-006     0.665566842051E-004
     0.208828142239E+003     0.207322801614E-003     0.118173996920E-003    -0.601237584897E-006     0.677591593749E-004
     0.210828142239E+003     0.208913386009E-003     0.119080630025E-003    -0.605850422849E-006     0.689708602206E-004
     0.212828142239E+003     0.210497517416E-003     0.119983584927E-003    -0.610444558877E-006     0.701917493383E-004
     0.214828142239E+003     0.212075221624E-003     0.120882876326E-003    -0.615020068524E-006     0.714217894754E-004
     0.216828142239E+003     0.213646524292E-003     0.121778518847E-003    -0.619577026997E-006     0.726609435294E-004
     0.218828142239E+003     0.215211450950E-003     0.122670527042E-003    -0.624115509164E-006     0.739091745477E-004
     0.220828142239E+003     0.216770026998E-003     0.123558915389E-003    -0.628635589550E-006     0.751664457268E-004
     0.222828142239E+003     0.218322277707E-003     0.124443698293E-003    -0.633137342342E-006     0.764327204115E-004
     0.224828142239E+003     0.219868228216E-003     0.125324890083E-003    -0.637620841381E-006     0.777079620943E-004
     0.226828142239E+003     0.221407903532E-003     0.126202505013E-003    -0.642086160165E-006     0.789921344146E-004
     0.228828142239E+003     0.222941328530E-003     0.127076557262E-003    -0.646533371847E-006     0.802852011583E-004
     0.230828142239E+003     0.224468527953E-003     0.127947060933E-003    -0.650962549233E-006     0.815871262568E-004
     0.232828142239E+003     0.225989526409E-003     0.128814030053E-003    -0.655373764781E-006     0.828978737863E-004
     0.234828142239E+003     0.227504348372E-003     0.129677478572E-003    -0.659767090597E-006     0.842174079675E-004
     0.236828142239E+003     0.229013018182E-003     0.130537420364E-003    -0.664142598438E-006     0.855456931644E-004
     0.238828142239E+003     0.230515560043E-003     0.131393869224E-003    -0.668500359704E-006     0.868826938838E-004
     0.240828142239E+003     0.232011998020E-003     0.132246838871E-003    -0.672840445444E-006     0.882283747747E-004
     0.242828142239E+003     0.233502356043E-003     0.133096342944E-003    -0.677162926345E-006     0.895827006274E-004
     0.244828142239E+003     0.234986657904E-003     0.133942395005E-003    -0.681467872739E-006     0.909456363728E-004
