 #              _____________________  _______________________             #
 #              ___  __ \__  __ \_  / / /_  /___  ____/_  ___/             #
 #              __  / / /_  /_/ /  / / /_  __/_  __/  _____ \              #
 #              _  /_/ /_  _, _// /_/ / / /_ _  /___  ____/ /              #
 #              /_____/ /_/ |_| \____/  \__/ /_____/  /____/               #
 #                                                                         #
  
 #        time                      c  [M/M]                   concetration [M/M]       zero flux   in    x              directions   cumulative flux
 #-----------------------------------------------------------------------------------------------

     0.000000000000E+000     0.642928000000E-003     0.000000000000E+000     0.000000000000E+000     0.000000000000E+000
     0.100000000000E+000     0.642925160623E-003     0.000000000000E+000     0.000000000000E+000     0.000000000000E+000
     0.206000000000E+000     0.642922150943E-003     0.000000000000E+000     0.000000000000E+000     0.000000000000E+000
     0.318360000000E+000     0.642918960747E-003     0.000000000000E+000     0.000000000000E+000     0.000000000000E+000
     0.437461600000E+000     0.642915579214E-003     0.000000000000E+000     0.000000000000E+000     0.000000000000E+000
     0.563709296000E+000     0.642911994872E-003     0.000000000000E+000     0.000000000000E+000     0.000000000000E+000
     0.697531853760E+000     0.642908195563E-003     0.000000000000E+000     0.000000000000E+000     0.000000000000E+000
     0.839383764986E+000     0.642904168401E-003     0.000000000000E+000     0.000000000000E+000     0.000000000000E+000
     0.989746790885E+000     0.642899899727E-003     0.000000000000E+000     0.000000000000E+000     0.000000000000E+000
     0.114913159834E+001     0.642895375065E-003     0.000000000000E+000     0.000000000000E+000     0.000000000000E+000
     0.131807949424E+001     0.642890579073E-003     0.000000000000E+000     0.000000000000E+000     0.000000000000E+000
     0.149716426389E+001     0.642885495488E-003     0.000000000000E+000     0.000000000000E+000     0.000000000000E+000
     0.168699411973E+001     0.642880107076E-003     0.000000000000E+000     0.000000000000E+000     0.000000000000E+000
     0.188821376691E+001     0.642874395572E-003     0.000000000000E+000     0.000000000000E+000     0.000000000000E+000
     0.210150659292E+001     0.642868341614E-003     0.000000000000E+000     0.000000000000E+000     0.000000000000E+000
     0.232759698850E+001     0.642861924686E-003     0.000000000000E+000     0.000000000000E+000     0.000000000000E+000
     0.256725280781E+001     0.642855123041E-003     0.000000000000E+000     0.000000000000E+000     0.000000000000E+000
     0.282128797628E+001     0.642847913635E-003     0.000000000000E+000     0.000000000000E+000     0.000000000000E+000
     0.309056525485E+001     0.642840272043E-003     0.000000000000E+000     0.000000000000E+000     0.000000000000E+000
     0.337599917015E+001     0.642832172381E-003     0.000000000000E+000     0.000000000000E+000     0.000000000000E+000
     0.367855912035E+001     0.642823587217E-003     0.000000000000E+000     0.000000000000E+000     0.000000000000E+000
     0.399927266758E+001     0.642814487480E-003     0.000000000000E+000     0.000000000000E+000     0.000000000000E+000
     0.433922902763E+001     0.642804842361E-003     0.000000000000E+000     0.000000000000E+000     0.000000000000E+000
     0.469958276929E+001     0.642794619213E-003     0.000000000000E+000     0.000000000000E+000     0.000000000000E+000
     0.508155773545E+001     0.642783783438E-003     0.000000000000E+000     0.000000000000E+000     0.000000000000E+000
     0.548645119957E+001     0.642772298371E-003     0.000000000000E+000     0.000000000000E+000     0.000000000000E+000
     0.591563827155E+001     0.642760125161E-003     0.000000000000E+000     0.000000000000E+000     0.000000000000E+000
     0.637057656784E+001     0.642747222638E-003     0.000000000000E+000     0.000000000000E+000     0.000000000000E+000
     0.685281116191E+001     0.642733547176E-003     0.000000000000E+000     0.000000000000E+000     0.000000000000E+000
     0.736397983162E+001     0.642719052550E-003     0.000000000000E+000     0.000000000000E+000     0.000000000000E+000
     0.790581862152E+001     0.642703689777E-003     0.000000000000E+000     0.000000000000E+000     0.000000000000E+000
     0.848016773881E+001     0.642687406958E-003     0.000000000000E+000     0.000000000000E+000     0.000000000000E+000
     0.908897780314E+001     0.642670149102E-003     0.000000000000E+000     0.000000000000E+000     0.000000000000E+000
     0.973431647133E+001     0.642651857946E-003     0.000000000000E+000     0.000000000000E+000     0.000000000000E+000
     0.104183754596E+002     0.642632471759E-003     0.000000000000E+000     0.000000000000E+000     0.000000000000E+000
     0.111434779872E+002     0.642611925142E-003     0.000000000000E+000     0.000000000000E+000     0.000000000000E+000
     0.119120866664E+002     0.642590148806E-003     0.000000000000E+000     0.000000000000E+000     0.000000000000E+000
     0.127268118664E+002     0.642567069348E-003     0.000000000000E+000     0.000000000000E+000     0.000000000000E+000
     0.135904205784E+002     0.642542609007E-003     0.000000000000E+000     0.000000000000E+000     0.000000000000E+000
     0.145058458131E+002     0.642516685412E-003     0.000000000000E+000     0.000000000000E+000     0.000000000000E+000
     0.154761965619E+002     0.642489211303E-003     0.000000000000E+000     0.000000000000E+000     0.000000000000E+000
     0.165047683556E+002     0.642460094257E-003     0.000000000000E+000     0.000000000000E+000     0.000000000000E+000
     0.175950544569E+002     0.642429236375E-003     0.000000000000E+000     0.000000000000E+000     0.000000000000E+000
     0.187507577243E+002     0.642396533973E-003     0.000000000000E+000     0.000000000000E+000     0.000000000000E+000
     0.199758031878E+002     0.642361877234E-003     0.000000000000E+000     0.000000000000E+000     0.000000000000E+000
     0.212743513791E+002     0.642325149863E-003     0.000000000000E+000     0.000000000000E+000     0.000000000000E+000
     0.226508124618E+002     0.642286228704E-003     0.000000000000E+000     0.000000000000E+000     0.000000000000E+000
     0.241098612095E+002     0.642244983343E-003     0.000000000000E+000     0.000000000000E+000     0.000000000000E+000
     0.256564528821E+002     0.642201275693E-003     0.000000000000E+000     0.000000000000E+000     0.000000000000E+000
     0.272958400550E+002     0.642154959550E-003     0.000000000000E+000     0.000000000000E+000     0.000000000000E+000
     0.290335904583E+002     0.642105880125E-003     0.000000000000E+000     0.000000000000E+000     0.000000000000E+000
     0.308756058858E+002     0.642053873553E-003     0.000000000000E+000     0.000000000000E+000     0.000000000000E+000
     0.328281422390E+002     0.641998766378E-003     0.000000000000E+000     0.000000000000E+000     0.000000000000E+000
     0.348281422390E+002     0.641942340374E-003     0.000000000000E+000     0.000000000000E+000     0.000000000000E+000
     0.368281422390E+002     0.641885935118E-003     0.000000000000E+000     0.000000000000E+000     0.000000000000E+000
     0.388281422390E+002     0.641829550604E-003     0.000000000000E+000     0.000000000000E+000     0.000000000000E+000
     0.408281422390E+002     0.641773186823E-003     0.000000000000E+000     0.000000000000E+000     0.000000000000E+000
     0.428281422390E+002     0.641716843768E-003     0.000000000000E+000     0.000000000000E+000     0.000000000000E+000
     0.448281422390E+002     0.641660521431E-003     0.000000000000E+000     0.000000000000E+000     0.000000000000E+000
     0.468281422390E+002     0.641604219805E-003     0.000000000000E+000     0.000000000000E+000     0.000000000000E+000
     0.488281422390E+002     0.641547938882E-003     0.000000000000E+000     0.000000000000E+000     0.000000000000E+000
     0.508281422390E+002     0.641491678654E-003     0.000000000000E+000     0.000000000000E+000     0.000000000000E+000
     0.528281422390E+002     0.641435439113E-003     0.000000000000E+000     0.000000000000E+000     0.000000000000E+000
     0.548281422390E+002     0.641379220253E-003     0.000000000000E+000     0.000000000000E+000     0.000000000000E+000
     0.568281422390E+002     0.641323022066E-003     0.000000000000E+000     0.000000000000E+000     0.000000000000E+000
     0.588281422390E+002     0.641266844543E-003     0.000000000000E+000     0.000000000000E+000     0.000000000000E+000
     0.608281422390E+002     0.641210687678E-003     0.000000000000E+000     0.000000000000E+000     0.000000000000E+000
     0.628281422390E+002     0.641154551462E-003     0.000000000000E+000     0.000000000000E+000     0.000000000000E+000
     0.648281422390E+002     0.641098435889E-003     0.000000000000E+000     0.000000000000E+000     0.000000000000E+000
     0.668281422390E+002     0.641042340950E-003     0.000000000000E+000     0.000000000000E+000     0.000000000000E+000
     0.688281422390E+002     0.640986266638E-003     0.000000000000E+000     0.000000000000E+000     0.000000000000E+000
     0.708281422390E+002     0.640930212946E-003     0.000000000000E+000     0.000000000000E+000     0.000000000000E+000
     0.728281422390E+002     0.640874179865E-003     0.000000000000E+000     0.000000000000E+000     0.000000000000E+000
     0.748281422390E+002     0.640818167389E-003     0.000000000000E+000     0.000000000000E+000     0.000000000000E+000
     0.768281422390E+002     0.640762175509E-003     0.000000000000E+000     0.000000000000E+000     0.000000000000E+000
     0.788281422390E+002     0.640706204219E-003     0.000000000000E+000     0.000000000000E+000     0.000000000000E+000
     0.808281422390E+002     0.640650253510E-003     0.000000000000E+000     0.000000000000E+000     0.000000000000E+000
     0.828281422390E+002     0.640594323375E-003     0.000000000000E+000     0.000000000000E+000     0.000000000000E+000
     0.848281422390E+002     0.640538413807E-003     0.000000000000E+000     0.000000000000E+000     0.000000000000E+000
     0.868281422390E+002     0.640482524797E-003     0.000000000000E+000     0.000000000000E+000     0.000000000000E+000
     0.888281422390E+002     0.640426656339E-003     0.000000000000E+000     0.000000000000E+000     0.000000000000E+000
     0.908281422390E+002     0.640370808425E-003     0.000000000000E+000     0.000000000000E+000     0.000000000000E+000
     0.928281422390E+002     0.640314981047E-003     0.000000000000E+000     0.000000000000E+000     0.000000000000E+000
     0.948281422390E+002     0.640259174197E-003     0.000000000000E+000     0.000000000000E+000     0.000000000000E+000
     0.968281422390E+002     0.640203387869E-003     0.000000000000E+000     0.000000000000E+000     0.000000000000E+000
     0.988281422390E+002     0.640147622054E-003     0.000000000000E+000     0.000000000000E+000     0.000000000000E+000
     0.100828142239E+003     0.640091876746E-003     0.000000000000E+000     0.000000000000E+000     0.000000000000E+000
     0.102828142239E+003     0.640036151936E-003     0.000000000000E+000     0.000000000000E+000     0.000000000000E+000
     0.104828142239E+003     0.639980447617E-003     0.000000000000E+000     0.000000000000E+000     0.000000000000E+000
     0.106828142239E+003     0.639924763781E-003     0.000000000000E+000     0.000000000000E+000     0.000000000000E+000
     0.108828142239E+003     0.639869100422E-003     0.000000000000E+000     0.000000000000E+000     0.000000000000E+000
     0.110828142239E+003     0.639813457530E-003     0.000000000000E+000     0.000000000000E+000     0.000000000000E+000
     0.112828142239E+003     0.639757835100E-003     0.000000000000E+000     0.000000000000E+000     0.000000000000E+000
     0.114828142239E+003     0.639702233123E-003     0.000000000000E+000     0.000000000000E+000     0.000000000000E+000
     0.116828142239E+003     0.639646651592E-003     0.000000000000E+000     0.000000000000E+000     0.000000000000E+000
     0.118828142239E+003     0.639591090500E-003     0.000000000000E+000     0.000000000000E+000     0.000000000000E+000
     0.120828142239E+003     0.639535549838E-003     0.000000000000E+000     0.000000000000E+000     0.000000000000E+000
     0.122828142239E+003     0.639480029599E-003     0.000000000000E+000     0.000000000000E+000     0.000000000000E+000
     0.124828142239E+003     0.639424529777E-003     0.000000000000E+000     0.000000000000E+000     0.000000000000E+000
     0.126828142239E+003     0.639369050363E-003     0.000000000000E+000     0.000000000000E+000     0.000000000000E+000
     0.128828142239E+003     0.639313591349E-003     0.000000000000E+000     0.000000000000E+000     0.000000000000E+000
     0.130828142239E+003     0.639258152729E-003     0.000000000000E+000     0.000000000000E+000     0.000000000000E+000
     0.132828142239E+003     0.639202734495E-003     0.000000000000E+000     0.000000000000E+000     0.000000000000E+000
     0.134828142239E+003     0.639147336639E-003     0.000000000000E+000     0.000000000000E+000     0.000000000000E+000
     0.136828142239E+003     0.639091959154E-003     0.000000000000E+000     0.000000000000E+000     0.000000000000E+000
     0.138828142239E+003     0.639036602032E-003     0.000000000000E+000     0.000000000000E+000     0.000000000000E+000
     0.140828142239E+003     0.638981265267E-003     0.000000000000E+000     0.000000000000E+000     0.000000000000E+000
     0.142828142239E+003     0.638925948849E-003     0.000000000000E+000     0.000000000000E+000     0.000000000000E+000
     0.144828142239E+003     0.638870652773E-003     0.000000000000E+000     0.000000000000E+000     0.000000000000E+000
     0.146828142239E+003     0.638815377030E-003     0.000000000000E+000     0.000000000000E+000     0.000000000000E+000
     0.148828142239E+003     0.638760121614E-003     0.000000000000E+000     0.000000000000E+000     0.000000000000E+000
     0.150828142239E+003     0.638704886515E-003     0.000000000000E+000     0.000000000000E+000     0.000000000000E+000
     0.152828142239E+003     0.638649671728E-003     0.000000000000E+000     0.000000000000E+000     0.000000000000E+000
     0.154828142239E+003     0.638594477244E-003     0.000000000000E+000     0.000000000000E+000     0.000000000000E+000
     0.156828142239E+003     0.638539303057E-003     0.000000000000E+000     0.000000000000E+000     0.000000000000E+000
     0.158828142239E+003     0.638484149158E-003     0.000000000000E+000     0.000000000000E+000     0.000000000000E+000
     0.160828142239E+003     0.638429015541E-003     0.000000000000E+000     0.000000000000E+000     0.000000000000E+000
     0.162828142239E+003     0.638373902197E-003     0.000000000000E+000     0.000000000000E+000     0.000000000000E+000
     0.164828142239E+003     0.638318809119E-003     0.000000000000E+000     0.000000000000E+000     0.000000000000E+000
     0.166828142239E+003     0.638263736301E-003     0.000000000000E+000     0.000000000000E+000     0.000000000000E+000
     0.168828142239E+003     0.638208683734E-003     0.000000000000E+000     0.000000000000E+000     0.000000000000E+000
     0.170828142239E+003     0.638153651411E-003     0.000000000000E+000     0.000000000000E+000     0.000000000000E+000
     0.172828142239E+003     0.638098639324E-003     0.000000000000E+000     0.000000000000E+000     0.000000000000E+000
     0.174828142239E+003     0.638043647467E-003     0.000000000000E+000     0.000000000000E+000     0.000000000000E+000
     0.176828142239E+003     0.637988675831E-003     0.000000000000E+000     0.000000000000E+000     0.000000000000E+000
     0.178828142239E+003     0.637933724410E-003     0.000000000000E+000     0.000000000000E+000     0.000000000000E+000
     0.180828142239E+003     0.637878793195E-003     0.000000000000E+000     0.000000000000E+000     0.000000000000E+000
     0.182828142239E+003     0.637823882180E-003     0.000000000000E+000     0.000000000000E+000     0.000000000000E+000
     0.184828142239E+003     0.637768991357E-003     0.000000000000E+000     0.000000000000E+000     0.000000000000E+000
     0.186828142239E+003     0.637714120718E-003     0.000000000000E+000     0.000000000000E+000     0.000000000000E+000
     0.188828142239E+003     0.637659270257E-003     0.000000000000E+000     0.000000000000E+000     0.000000000000E+000
     0.190828142239E+003     0.637604439965E-003     0.000000000000E+000     0.000000000000E+000     0.000000000000E+000
     0.192828142239E+003     0.637549629836E-003     0.000000000000E+000     0.000000000000E+000     0.000000000000E+000
     0.194828142239E+003     0.637494839861E-003     0.000000000000E+000     0.000000000000E+000     0.000000000000E+000
     0.196828142239E+003     0.637440070034E-003     0.000000000000E+000     0.000000000000E+000     0.000000000000E+000
     0.198828142239E+003     0.637385320347E-003     0.000000000000E+000     0.000000000000E+000     0.000000000000E+000
     0.200828142239E+003     0.637330590793E-003     0.000000000000E+000     0.000000000000E+000     0.000000000000E+000
     0.202828142239E+003     0.637275881364E-003     0.000000000000E+000     0.000000000000E+000     0.000000000000E+000
     0.204828142239E+003     0.637221192053E-003     0.000000000000E+000     0.000000000000E+000     0.000000000000E+000
     0.206828142239E+003     0.637166522853E-003     0.000000000000E+000     0.000000000000E+000     0.000000000000E+000
     0.208828142239E+003     0.637111873756E-003     0.000000000000E+000     0.000000000000E+000     0.000000000000E+000
     0.210828142239E+003     0.637057244754E-003     0.000000000000E+000     0.000000000000E+000     0.000000000000E+000
     0.212828142239E+003     0.637002635841E-003     0.000000000000E+000     0.000000000000E+000     0.000000000000E+000
     0.214828142239E+003     0.636948047009E-003     0.000000000000E+000     0.000000000000E+000     0.000000000000E+000
     0.216828142239E+003     0.636893478251E-003     0.000000000000E+000     0.000000000000E+000     0.000000000000E+000
     0.218828142239E+003     0.636838929558E-003     0.000000000000E+000     0.000000000000E+000     0.000000000000E+000
     0.220828142239E+003     0.636784400925E-003     0.000000000000E+000     0.000000000000E+000     0.000000000000E+000
     0.222828142239E+003     0.636729892343E-003     0.000000000000E+000     0.000000000000E+000     0.000000000000E+000
     0.224828142239E+003     0.636675403805E-003     0.000000000000E+000     0.000000000000E+000     0.000000000000E+000
     0.226828142239E+003     0.636620935304E-003     0.000000000000E+000     0.000000000000E+000     0.000000000000E+000
     0.228828142239E+003     0.636566486832E-003     0.000000000000E+000     0.000000000000E+000     0.000000000000E+000
     0.230828142239E+003     0.636512058383E-003     0.000000000000E+000     0.000000000000E+000     0.000000000000E+000
     0.232828142239E+003     0.636457649948E-003     0.000000000000E+000     0.000000000000E+000     0.000000000000E+000
     0.234828142239E+003     0.636403261520E-003     0.000000000000E+000     0.000000000000E+000     0.000000000000E+000
     0.236828142239E+003     0.636348893092E-003     0.000000000000E+000     0.000000000000E+000     0.000000000000E+000
     0.238828142239E+003     0.636294544657E-003     0.000000000000E+000     0.000000000000E+000     0.000000000000E+000
     0.240828142239E+003     0.636240216207E-003     0.000000000000E+000     0.000000000000E+000     0.000000000000E+000
     0.242828142239E+003     0.636185907736E-003     0.000000000000E+000     0.000000000000E+000     0.000000000000E+000
     0.244828142239E+003     0.636131619234E-003     0.000000000000E+000     0.000000000000E+000     0.000000000000E+000
